SpectraSuite Data File
++++++++++++++++++++++++++++++++++++
Date: Tue Sep 13 10:35:30 EDT 2022
User: Laboratoire
Dark Spectrum Present: No
Reference Spectrum Present: No
Number of Sampled Component Spectra: 1
Spectrometers: FLMT00174
Integration Time (usec): 12000 (FLMT00174)
Spectra Averaged: 25 (FLMT00174)
Boxcar Smoothing: 0 (FLMT00174)
Correct for Electrical Dark: No (FLMT00174)
Strobe/Lamp Enabled: No (FLMT00174)
Correct for Detector Non-linearity: No (FLMT00174)
Correct for Stray Light: No (FLMT00174)
Number of Pixels in Processed Spectrum: 3648
>>>>>Begin Processed Spectral Data<<<<<
345,74	3005,44
345,96	3005,44
346,18	3005,44
346,39	3012,64
346,61	3039,76
346,83	3054,83
347,05	3032,39
347,27	3045,82
347,49	3055,73
347,71	3054,09
347,93	3060,57
348,15	3050,98
348,36	3045,82
348,58	3065,40
348,80	3043,69
349,02	3052,70
349,24	3055,16
349,46	3078,02
349,68	3052,05
349,90	3068,43
350,11	3065,89
350,33	3054,83
350,55	3051,31
350,77	3071,95
350,99	3044,84
351,21	3066,14
351,43	3048,36
351,65	3069,74
351,86	3053,03
352,08	3062,61
352,30	3055,65
352,52	3057,29
352,74	3029,52
352,96	3053,28
353,18	3070,23
353,39	3056,31
353,61	3048,93
353,83	3063,60
354,05	3062,37
354,27	3049,59
354,49	3042,79
354,70	3051,31
354,92	3051,47
355,14	3049,84
355,36	3054,50
355,58	3059,99
355,80	3059,50
356,02	3053,69
356,23	3057,37
356,45	3061,96
356,67	3033,12
356,89	3060,16
357,11	3051,47
357,33	3063,60
357,54	3047,71
357,76	3064,01
357,98	3059,50
358,20	3072,36
358,42	3043,20
358,63	3057,62
358,85	3061,96
359,07	3070,97
359,29	3053,93
359,51	3053,85
359,73	3040,91
359,94	3050,82
360,16	3044,35
360,38	3052,13
360,60	3052,78
360,82	3061,47
361,03	3066,55
361,25	3052,95
361,47	3071,87
361,69	3060,48
361,91	3062,29
362,12	3057,70
362,34	3048,03
362,56	3067,28
362,78	3055,90
363,00	3062,04
363,21	3051,47
363,43	3055,82
363,65	3048,93
363,87	3080,39
364,09	3055,49
364,30	3054,83
364,52	3040,25
364,74	3082,93
364,96	3060,32
365,17	3053,36
365,39	3042,63
365,61	3060,40
365,83	3055,24
366,05	3058,35
366,26	3039,60
366,48	3056,39
366,70	3053,44
366,92	3059,26
367,13	3066,05
367,35	3041,73
367,57	3048,20
367,79	3073,18
368,01	3056,96
368,22	3073,18
368,44	3059,50
368,66	3062,53
368,88	3049,34
369,09	3059,83
369,31	3064,42
369,53	3054,67
369,75	3056,14
369,96	3077,85
370,18	3056,06
370,40	3056,80
370,62	3045,00
370,83	3048,69
371,05	3054,91
371,27	3053,93
371,49	3061,30
371,70	3064,91
371,92	3046,07
372,14	3062,20
372,36	3047,13
372,57	3063,02
372,79	3057,21
373,01	3053,19
373,22	3042,38
373,44	3073,92
373,66	3037,14
373,88	3059,34
374,09	3044,02
374,31	3072,36
374,53	3047,95
374,75	3058,68
374,96	3065,65
375,18	3074,74
375,40	3049,92
375,61	3052,46
375,83	3047,13
376,05	3044,51
376,27	3062,61
376,48	3075,39
376,70	3056,39
376,92	3060,73
377,13	3061,71
377,35	3073,35
377,57	3052,21
377,79	3059,99
378,00	3037,87
378,22	3056,06
378,44	3045,90
378,65	3058,60
378,87	3057,29
379,09	3065,24
379,30	3054,67
379,52	3055,49
379,74	3060,48
379,96	3050,24
380,17	3061,39
380,39	3065,15
380,61	3066,46
380,82	3056,55
381,04	3046,72
381,26	3058,93
381,47	3059,26
381,69	3067,78
381,91	3053,85
382,12	3049,59
382,34	3074,90
382,56	3065,32
382,77	3055,32
382,99	3071,87
383,21	3046,39
383,42	3052,54
383,64	3060,24
383,86	3068,51
384,07	3065,73
384,29	3060,65
384,51	3059,34
384,72	3062,94
384,94	3051,47
385,16	3054,01
385,37	3052,78
385,59	3046,80
385,81	3054,83
386,02	3058,85
386,24	3071,22
386,46	3069,09
386,67	3046,89
386,89	3069,99
387,11	3067,94
387,32	3053,93
387,54	3045,74
387,76	3076,46
387,97	3068,43
388,19	3061,30
388,40	3046,89
388,62	3053,93
388,84	3066,14
389,05	3072,69
389,27	3058,85
389,49	3053,60
389,70	3049,67
389,92	3068,27
390,14	3057,54
390,35	3074,66
390,57	3049,18
390,78	3041,32
391,00	3049,02
391,22	3065,40
391,43	3053,11
391,65	3071,54
391,86	3059,01
392,08	3084,08
392,30	3048,85
392,51	3068,84
392,73	3074,00
392,95	3040,66
393,16	3039,27
393,38	3065,81
393,59	3058,76
393,81	3071,87
394,03	3048,85
394,24	3059,26
394,46	3067,45
394,67	3065,97
394,89	3051,47
395,11	3069,41
395,32	3078,59
395,54	3058,52
395,75	3070,23
395,97	3055,73
396,19	3044,76
396,40	3060,07
396,62	3068,68
396,83	3065,73
397,05	3038,94
397,26	3058,19
397,48	3036,97
397,70	3074,74
397,91	3049,59
398,13	3064,25
398,34	3061,71
398,56	3070,97
398,78	3064,66
398,99	3078,02
399,21	3040,33
399,42	3081,05
399,64	3042,22
399,85	3064,09
400,07	3058,52
400,29	3069,50
400,50	3057,04
400,72	3075,64
400,93	3057,70
401,15	3038,69
401,36	3054,09
401,58	3061,47
401,79	3057,86
402,01	3073,59
402,23	3053,69
402,44	3097,10
402,66	3055,16
402,87	3079,08
403,09	3047,62
403,30	3061,71
403,52	3060,40
403,73	3063,84
403,95	3050,16
404,16	3071,63
404,38	3063,84
404,60	3061,47
404,81	3064,83
405,03	3064,66
405,24	3061,14
405,46	3060,40
405,67	3067,04
405,89	3073,26
406,10	3042,71
406,32	3045,90
406,53	3063,60
406,75	3072,77
406,96	3069,41
407,18	3062,70
407,39	3035,34
407,61	3083,09
407,82	3052,13
408,04	3069,99
408,25	3055,73
408,47	3072,61
408,68	3048,93
408,90	3055,16
409,12	3053,93
409,33	3053,44
409,55	3056,80
409,76	3059,83
409,98	3045,25
410,19	3063,60
410,41	3057,45
410,62	3060,65
410,84	3050,16
411,05	3067,20
411,27	3062,61
411,48	3068,76
411,70	3067,61
411,91	3057,78
412,12	3066,30
412,34	3066,46
412,55	3053,52
412,77	3060,89
412,98	3074,08
413,20	3064,09
413,41	3055,49
413,63	3060,24
413,84	3049,02
414,06	3086,94
414,27	3058,03
414,49	3071,79
414,70	3069,82
414,92	3070,56
415,13	3070,23
415,35	3078,34
415,56	3052,95
415,78	3052,70
415,99	3057,86
416,21	3061,55
416,42	3055,98
416,63	3080,88
416,85	3053,93
417,06	3081,95
417,28	3050,33
417,49	3073,26
417,71	3069,25
417,92	3075,48
418,14	3069,17
418,35	3082,03
418,57	3067,69
418,78	3069,66
418,99	3072,53
419,21	3077,20
419,42	3076,13
419,64	3078,10
419,85	3068,59
420,07	3063,60
420,28	3062,70
420,50	3087,19
420,71	3061,47
420,92	3060,73
421,14	3057,54
421,35	3052,87
421,57	3065,15
421,78	3073,84
422,00	3065,65
422,21	3056,39
422,42	3053,19
422,64	3051,72
422,85	3062,94
423,07	3050,00
423,28	3063,84
423,50	3055,73
423,71	3045,25
423,92	3073,92
424,14	3061,06
424,35	3067,86
424,57	3069,58
424,78	3087,60
424,99	3064,25
425,21	3060,73
425,42	3047,87
425,64	3070,15
425,85	3054,91
426,06	3092,84
426,28	3056,55
426,49	3075,80
426,71	3071,79
426,92	3057,95
427,13	3065,07
427,35	3065,73
427,56	3062,29
427,78	3056,96
427,99	3057,37
428,20	3062,12
428,42	3083,59
428,63	3071,38
428,84	3039,92
429,06	3066,38
429,27	3071,71
429,49	3063,43
429,70	3053,93
429,91	3071,46
430,13	3058,93
430,34	3052,95
430,56	3058,11
430,77	3074,98
430,98	3058,68
431,20	3078,42
431,41	3079,57
431,62	3047,79
431,84	3069,91
432,05	3074,25
432,26	3064,83
432,48	3050,90
432,69	3074,41
432,91	3075,72
433,12	3057,13
433,33	3079,74
433,55	3069,74
433,76	3051,64
433,97	3059,01
434,19	3055,49
434,40	3050,82
434,61	3065,81
434,83	3047,46
435,04	3070,81
435,25	3066,79
435,47	3054,42
435,68	3060,98
435,89	3083,26
436,11	3047,05
436,32	3068,59
436,53	3070,81
436,75	3052,21
436,96	3041,97
437,17	3059,83
437,39	3060,81
437,60	3068,59
437,81	3056,39
438,03	3052,21
438,24	3054,34
438,45	3063,35
438,67	3061,55
438,88	3072,12
439,09	3071,95
439,31	3070,23
439,52	3071,95
439,73	3070,48
439,94	3067,04
440,16	3072,20
440,37	3050,82
440,58	3067,78
440,80	3051,31
441,01	3061,39
441,22	3060,81
441,44	3055,00
441,65	3077,11
441,86	3052,29
442,08	3053,19
442,29	3061,06
442,50	3059,50
442,71	3076,13
442,93	3048,52
443,14	3051,39
443,35	3069,99
443,57	3069,74
443,78	3040,41
443,99	3065,07
444,20	3063,11
444,42	3065,73
444,63	3043,36
444,84	3079,41
445,06	3065,07
445,27	3066,96
445,48	3054,67
445,69	3087,11
445,91	3048,28
446,12	3066,30
446,33	3056,22
446,54	3059,50
446,76	3043,77
446,97	3056,22
447,18	3045,74
447,39	3077,03
447,61	3059,75
447,82	3057,45
448,03	3060,07
448,25	3064,01
448,46	3039,68
448,67	3048,52
448,88	3062,86
449,10	3062,04
449,31	3051,39
449,52	3079,08
449,73	3045,90
449,95	3074,74
450,16	3058,68
450,37	3062,86
450,58	3055,90
450,79	3070,64
451,01	3055,98
451,22	3079,24
451,43	3061,39
451,64	3072,28
451,86	3058,85
452,07	3053,28
452,28	3049,26
452,49	3082,68
452,71	3067,94
452,92	3068,02
453,13	3078,59
453,34	3080,06
453,55	3069,17
453,77	3068,59
453,98	3058,60
454,19	3066,55
454,40	3054,67
454,62	3073,02
454,83	3042,05
455,04	3069,91
455,25	3070,48
455,46	3064,42
455,68	3068,35
455,89	3076,46
456,10	3067,61
456,31	3060,40
456,52	3051,39
456,74	3081,21
456,95	3046,31
457,16	3076,29
457,37	3059,09
457,58	3067,12
457,80	3074,90
458,01	3061,47
458,22	3055,73
458,43	3058,68
458,64	3062,45
458,86	3056,55
459,07	3042,63
459,28	3051,64
459,49	3061,71
459,70	3066,55
459,91	3067,45
460,13	3067,28
460,34	3055,82
460,55	3050,24
460,76	3043,20
460,97	3079,08
461,19	3050,16
461,40	3049,18
461,61	3050,82
461,82	3064,42
462,03	3065,07
462,24	3062,61
462,46	3052,87
462,67	3056,80
462,88	3069,91
463,09	3055,90
463,30	3042,30
463,51	3064,09
463,72	3043,77
463,94	3053,11
464,15	3047,46
464,36	3035,58
464,57	3053,36
464,78	3082,60
464,99	3053,52
465,20	3064,74
465,42	3067,37
465,63	3073,59
465,84	3066,63
466,05	3060,07
466,26	3072,20
466,47	3062,45
466,68	3046,23
466,90	3070,48
467,11	3060,57
467,32	3062,86
467,53	3063,02
467,74	3047,95
467,95	3051,06
468,16	3063,19
468,37	3057,21
468,59	3063,93
468,80	3056,47
469,01	3059,34
469,22	3030,09
469,43	3067,61
469,64	3082,36
469,85	3065,32
470,06	3063,27
470,28	3077,11
470,49	3073,02
470,70	3065,65
470,91	3051,06
471,12	3071,71
471,33	3044,18
471,54	3064,66
471,75	3055,82
471,96	3063,52
472,17	3059,42
472,39	3070,48
472,60	3052,62
472,81	3068,84
473,02	3058,11
473,23	3057,62
473,44	3074,25
473,65	3069,17
473,86	3064,99
474,07	3059,17
474,28	3065,15
474,49	3060,16
474,71	3052,05
474,92	3060,16
475,13	3058,35
475,34	3060,07
475,55	3057,21
475,76	3080,80
475,97	3045,58
476,18	3053,11
476,39	3048,36
476,60	3069,33
476,81	3069,82
477,02	3065,15
477,23	3039,60
477,44	3069,41
477,65	3069,74
477,87	3058,44
478,08	3033,12
478,29	3074,16
478,50	3058,68
478,71	3073,10
478,92	3048,11
479,13	3078,26
479,34	3051,56
479,55	3060,57
479,76	3066,87
479,97	3058,03
480,18	3048,20
480,39	3069,33
480,60	3054,01
480,81	3062,94
481,02	3044,92
481,23	3060,16
481,44	3048,36
481,65	3077,93
481,86	3047,13
482,07	3074,33
482,28	3059,67
482,49	3063,27
482,71	3060,40
482,92	3062,12
483,13	3058,60
483,34	3083,91
483,55	3073,10
483,76	3054,01
483,97	3043,20
484,18	3072,28
484,39	3039,92
484,60	3057,13
484,81	3044,35
485,02	3066,87
485,23	3047,46
485,44	3060,48
485,65	3059,83
485,86	3053,19
486,07	3074,25
486,28	3067,61
486,49	3063,35
486,70	3082,36
486,91	3052,05
487,12	3056,80
487,33	3064,91
487,54	3065,40
487,75	3056,63
487,96	3075,64
488,17	3035,42
488,38	3060,32
488,59	3041,23
488,80	3057,86
489,01	3067,53
489,22	3072,12
489,43	3069,58
489,64	3077,93
489,85	3047,54
490,06	3054,83
490,26	3045,08
490,47	3063,43
490,68	3062,78
490,89	3074,82
491,10	3061,14
491,31	3060,24
491,52	3071,63
491,73	3054,42
491,94	3053,03
492,15	3064,99
492,36	3059,01
492,57	3058,60
492,78	3040,00
492,99	3072,69
493,20	3052,62
493,41	3072,94
493,62	3047,87
493,83	3061,55
494,04	3053,52
494,25	3062,04
494,46	3053,11
494,67	3058,19
494,88	3052,21
495,08	3063,60
495,29	3061,88
495,50	3071,71
495,71	3055,57
495,92	3076,79
496,13	3056,63
496,34	3068,02
496,55	3071,30
496,76	3069,09
496,97	3083,09
497,18	3072,77
497,39	3052,21
497,60	3090,88
497,81	3070,89
498,02	3074,57
498,22	3055,16
498,43	3063,52
498,64	3042,54
498,85	3064,66
499,06	3052,37
499,27	3067,28
499,48	3053,44
499,69	3069,50
499,90	3062,20
500,11	3076,70
500,32	3041,81
500,52	3052,95
500,73	3052,78
500,94	3067,69
501,15	3053,03
501,36	3057,21
501,57	3044,76
501,78	3064,91
501,99	3050,98
502,20	3050,57
502,41	3045,00
502,61	3073,18
502,82	3075,56
503,03	3059,34
503,24	3058,93
503,45	3052,46
503,66	3047,38
503,87	3067,69
504,08	3053,69
504,28	3061,88
504,49	3081,29
504,70	3048,69
504,91	3050,65
505,12	3049,92
505,33	3070,15
505,54	3065,24
505,75	3054,01
505,95	3074,08
506,16	3055,41
506,37	3062,70
506,58	3061,63
506,79	3083,83
507,00	3056,14
507,21	3055,32
507,41	3066,30
507,62	3059,91
507,83	3055,57
508,04	3070,48
508,25	3054,26
508,46	3060,57
508,67	3052,87
508,87	3076,62
509,08	3057,21
509,29	3052,70
509,50	3038,12
509,71	3051,39
509,92	3053,44
510,12	3069,00
510,33	3034,76
510,54	3072,61
510,75	3069,17
510,96	3082,60
511,17	3064,91
511,37	3059,42
511,58	3059,50
511,79	3057,45
512,00	3072,12
512,21	3069,50
512,42	3068,27
512,62	3060,73
512,83	3050,90
513,04	3054,18
513,25	3071,22
513,46	3060,89
513,66	3057,78
513,87	3054,26
514,08	3058,68
514,29	3067,94
514,50	3063,84
514,71	3066,63
514,91	3055,00
515,12	3065,07
515,33	3069,17
515,54	3059,17
515,75	3062,12
515,95	3069,58
516,16	3043,28
516,37	3078,92
516,58	3067,45
516,78	3067,53
516,99	3063,93
517,20	3057,45
517,41	3081,21
517,62	3059,01
517,82	3057,04
518,03	3053,44
518,24	3068,84
518,45	3071,71
518,66	3071,22
518,86	3086,37
519,07	3055,32
519,28	3061,06
519,49	3059,34
519,69	3054,83
519,90	3046,15
520,11	3059,58
520,32	3051,64
520,52	3065,15
520,73	3046,89
520,94	3069,41
521,15	3054,59
521,36	3073,92
521,56	3061,88
521,77	3066,55
521,98	3056,14
522,19	3070,15
522,39	3064,83
522,60	3074,00
522,81	3063,11
523,02	3050,08
523,22	3078,59
523,43	3060,65
523,64	3038,69
523,84	3061,14
524,05	3066,05
524,26	3060,16
524,47	3041,81
524,67	3052,21
524,88	3073,35
525,09	3072,61
525,30	3045,49
525,50	3056,14
525,71	3058,93
525,92	3054,75
526,13	3059,17
526,33	3063,11
526,54	3055,82
526,75	3053,03
526,95	3060,40
527,16	3053,28
527,37	3072,44
527,58	3072,61
527,78	3053,11
527,99	3038,86
528,20	3044,51
528,40	3078,26
528,61	3059,83
528,82	3078,83
529,03	3065,24
529,23	3081,54
529,44	3055,00
529,65	3058,35
529,85	3060,81
530,06	3070,64
530,27	3039,92
530,47	3062,20
530,68	3058,11
530,89	3064,99
531,09	3069,74
531,30	3071,71
531,51	3061,55
531,72	3079,74
531,92	3059,58
532,13	3069,25
532,34	3061,96
532,54	3060,16
532,75	3053,85
532,96	3070,89
533,16	3033,45
533,37	3071,22
533,58	3056,31
533,78	3060,73
533,99	3056,47
534,20	3072,77
534,40	3055,49
534,61	3063,02
534,82	3043,36
535,02	3077,28
535,23	3074,00
535,44	3067,69
535,64	3046,23
535,85	3062,94
536,06	3057,37
536,26	3076,21
536,47	3074,25
536,68	3052,29
536,88	3058,60
537,09	3044,35
537,29	3047,54
537,50	3084,81
537,71	3045,58
537,91	3066,55
538,12	3059,17
538,33	3071,38
538,53	3056,88
538,74	3054,83
538,95	3042,79
539,15	3044,26
539,36	3061,88
539,56	3068,35
539,77	3079,98
539,98	3055,32
540,18	3051,72
540,39	3063,84
540,60	3061,47
540,80	3073,43
541,01	3049,51
541,21	3059,50
541,42	3064,17
541,63	3070,07
541,83	3051,31
542,04	3070,15
542,25	3077,93
542,45	3079,00
542,66	3056,80
542,86	3058,60
543,07	3045,90
543,28	3076,29
543,48	3053,36
543,69	3065,73
543,89	3045,41
544,10	3072,12
544,31	3050,82
544,51	3061,63
544,72	3059,91
544,92	3065,48
545,13	3059,75
545,33	3062,53
545,54	3064,66
545,75	3067,53
545,95	3036,48
546,16	3051,56
546,36	3049,34
546,57	3064,33
546,78	3027,55
546,98	3060,16
547,19	3053,36
547,39	3076,70
547,60	3062,61
547,80	3050,82
548,01	3048,03
548,22	3075,39
548,42	3045,49
548,63	3057,62
548,83	3047,54
549,04	3069,66
549,24	3060,40
549,45	3067,12
549,65	3054,83
549,86	3047,21
550,07	3057,70
550,27	3069,58
550,48	3071,46
550,68	3069,66
550,89	3057,37
551,09	3068,68
551,30	3061,71
551,50	3050,33
551,71	3036,40
551,91	3059,67
552,12	3066,87
552,33	3074,98
552,53	3073,43
552,74	3066,38
552,94	3059,58
553,15	3057,29
553,35	3062,78
553,56	3057,78
553,76	3061,14
553,97	3051,72
554,17	3071,87
554,38	3080,39
554,58	3049,10
554,79	3072,44
554,99	3052,46
555,20	3089,98
555,40	3077,28
555,61	3060,81
555,81	3045,49
556,02	3049,18
556,22	3062,45
556,43	3072,20
556,63	3072,12
556,84	3072,36
557,04	3057,86
557,25	3073,43
557,45	3055,41
557,66	3056,47
557,86	3068,68
558,07	3076,70
558,27	3059,09
558,48	3079,41
558,68	3063,93
558,89	3066,46
559,09	3064,91
559,30	3067,28
559,50	3055,32
559,71	3074,16
559,91	3055,32
560,12	3078,34
560,32	3058,11
560,53	3058,60
560,73	3075,56
560,94	3061,96
561,14	3075,23
561,35	3070,89
561,55	3048,77
561,76	3073,59
561,96	3052,54
562,17	3082,85
562,37	3062,94
562,57	3067,53
562,78	3061,96
562,98	3069,09
563,19	3062,12
563,39	3056,88
563,60	3059,26
563,80	3078,10
564,01	3076,05
564,21	3055,49
564,42	3042,30
564,62	3084,49
564,82	3062,61
565,03	3059,50
565,23	3056,06
565,44	3071,87
565,64	3057,62
565,85	3071,05
566,05	3051,23
566,25	3076,70
566,46	3069,00
566,66	3091,45
566,87	3102,92
567,07	3124,14
567,28	3136,75
567,48	3196,06
567,68	3187,79
567,89	3197,62
568,09	3181,89
568,30	3152,81
568,50	3132,41
568,71	3130,93
568,91	3101,85
569,11	3083,50
569,32	3072,20
569,52	3089,16
569,73	3079,41
569,93	3067,61
570,13	3050,08
570,34	3067,45
570,54	3068,35
570,75	3064,99
570,95	3062,53
571,15	3065,65
571,36	3059,34
571,56	3068,76
571,77	3071,05
571,97	3071,05
572,17	3053,85
572,38	3083,50
572,58	3077,44
572,79	3078,75
572,99	3086,70
573,19	3080,14
573,40	3075,39
573,60	3074,82
573,81	3079,08
574,01	3076,13
574,21	3065,73
574,42	3075,07
574,62	3072,20
574,82	3086,70
575,03	3080,23
575,23	3092,92
575,43	3051,80
575,64	3078,26
575,84	3074,33
576,05	3074,25
576,25	3069,82
576,45	3084,98
576,66	3068,51
576,86	3090,63
577,06	3078,51
577,27	3080,14
577,47	3083,34
577,67	3088,09
577,88	3070,56
578,08	3083,34
578,28	3082,36
578,49	3089,07
578,69	3071,38
578,89	3087,44
579,10	3085,88
579,30	3091,78
579,50	3094,48
579,71	3106,44
579,91	3071,13
580,11	3102,75
580,32	3093,17
580,52	3094,73
580,72	3089,40
580,93	3086,21
581,13	3100,46
581,33	3105,54
581,54	3080,88
581,74	3086,04
581,94	3083,01
582,15	3101,20
582,35	3101,53
582,55	3143,39
582,76	3107,18
582,96	3125,20
583,16	3128,64
583,37	3152,73
583,57	3136,10
583,77	3166,57
583,97	3174,52
584,18	3181,31
584,38	3179,43
584,58	3183,77
584,79	3193,03
584,99	3218,10
585,19	3214,90
585,40	3206,87
585,60	3238,90
585,80	3260,78
586,00	3284,37
586,21	3332,62
586,41	3335,16
586,61	3484,17
586,82	3759,33
587,02	4940,11
587,22	9868,34
587,42	19878,98
587,63	29819,90
587,83	39611,48
588,03	51910,85
588,23	58272,66
588,44	58545,04
588,64	54060,64
588,84	49730,17
589,05	41463,26
589,25	31668,23
589,45	24173,90
589,65	17898,26
589,86	12987,32
590,06	9390,84
590,26	6972,10
590,46	5391,24
590,67	4471,45
590,87	3966,01
591,07	3675,94
591,27	3519,15
591,48	3435,84
591,68	3346,95
591,88	3299,03
592,08	3263,89
592,29	3237,84
592,49	3215,64
592,69	3203,76
592,89	3177,96
593,10	3184,59
593,30	3138,96
593,50	3140,52
593,70	3161,98
593,90	3134,13
594,11	3132,65
594,31	3133,06
594,51	3123,89
594,71	3121,92
594,92	3105,62
595,12	3121,43
595,32	3085,72
595,52	3129,87
595,72	3083,83
595,93	3102,43
596,13	3109,31
596,33	3104,15
596,53	3093,33
596,73	3111,11
596,94	3090,96
597,14	3095,05
597,34	3096,61
597,54	3083,18
597,74	3073,35
597,95	3081,37
598,15	3073,76
598,35	3093,83
598,55	3070,31
598,75	3105,62
598,96	3093,66
599,16	3087,60
599,36	3075,48
599,56	3081,95
599,76	3072,12
599,97	3103,25
600,17	3062,86
600,37	3078,67
600,57	3074,49
600,77	3085,88
600,97	3054,34
601,18	3088,83
601,38	3078,92
601,58	3082,85
601,78	3083,83
601,98	3091,04
602,18	3088,25
602,39	3072,94
602,59	3081,21
602,79	3093,58
602,99	3099,56
603,19	3083,34
603,39	3085,22
603,60	3090,55
603,80	3060,16
604,00	3081,87
604,20	3073,02
604,40	3081,21
604,60	3064,50
604,80	3089,81
605,01	3068,92
605,21	3073,35
605,41	3060,57
605,61	3069,09
605,81	3065,32
606,01	3087,19
606,21	3061,06
606,42	3069,66
606,62	3070,48
606,82	3076,13
607,02	3046,56
607,22	3060,57
607,42	3059,26
607,62	3070,97
607,82	3068,02
608,03	3076,38
608,23	3063,52
608,43	3064,17
608,63	3063,60
608,83	3062,86
609,03	3071,30
609,23	3063,84
609,43	3073,43
609,63	3074,41
609,84	3071,05
610,04	3079,00
610,24	3049,18
610,44	3070,40
610,64	3049,34
610,84	3077,77
611,04	3056,22
611,24	3073,76
611,44	3061,30
611,64	3079,57
611,85	3061,30
612,05	3080,96
612,25	3055,32
612,45	3067,61
612,65	3055,82
612,85	3055,00
613,05	3055,57
613,25	3061,63
613,45	3037,30
613,65	3093,17
613,85	3064,33
614,05	3074,08
614,25	3074,90
614,46	3079,65
614,66	3077,20
614,86	3114,22
615,06	3062,45
615,26	3103,49
615,46	3094,48
615,66	3078,02
615,86	3074,00
616,06	3075,80
616,26	3069,82
616,46	3085,06
616,66	3058,19
616,86	3062,37
617,06	3074,33
617,26	3080,80
617,46	3065,15
617,66	3061,22
617,86	3076,70
618,07	3076,79
618,27	3042,54
618,47	3065,65
618,67	3069,74
618,87	3075,80
619,07	3056,72
619,27	3074,25
619,47	3051,31
619,67	3068,10
619,87	3066,96
620,07	3065,73
620,27	3064,09
620,47	3073,59
620,67	3058,19
620,87	3078,59
621,07	3058,27
621,27	3092,35
621,47	3063,35
621,67	3075,56
621,87	3051,96
622,07	3073,10
622,27	3060,48
622,47	3061,30
622,67	3045,74
622,87	3071,05
623,07	3069,82
623,27	3061,47
623,47	3057,45
623,67	3060,89
623,87	3046,97
624,07	3076,13
624,27	3055,98
624,47	3054,91
624,67	3050,57
624,87	3055,65
625,07	3067,20
625,27	3068,59
625,47	3054,34
625,67	3057,78
625,87	3067,20
626,07	3041,07
626,27	3059,58
626,47	3064,17
626,67	3061,63
626,87	3042,63
627,07	3068,02
627,27	3060,07
627,47	3053,11
627,67	3064,25
627,87	3053,77
628,07	3067,78
628,27	3064,01
628,47	3060,48
628,67	3056,06
628,86	3059,75
629,06	3077,36
629,26	3060,81
629,46	3065,24
629,66	3068,51
629,86	3040,00
630,06	3075,48
630,26	3068,43
630,46	3040,17
630,66	3048,20
630,86	3067,45
631,06	3055,98
631,26	3065,48
631,46	3046,15
631,66	3081,70
631,86	3050,49
632,06	3071,63
632,26	3067,78
632,45	3062,70
632,65	3053,03
632,85	3061,47
633,05	3045,49
633,25	3079,16
633,45	3046,72
633,65	3070,48
633,85	3060,24
634,05	3060,65
634,25	3061,63
634,45	3068,59
634,65	3062,53
634,84	3062,45
635,04	3056,96
635,24	3052,46
635,44	3048,28
635,64	3071,38
635,84	3037,71
636,04	3054,59
636,24	3060,89
636,44	3063,84
636,64	3044,43
636,84	3033,86
637,03	3062,70
637,23	3056,47
637,43	3040,00
637,63	3058,60
637,83	3063,93
638,03	3070,40
638,23	3059,58
638,43	3056,55
638,62	3060,98
638,82	3080,64
639,02	3060,73
639,22	3066,87
639,42	3058,52
639,62	3068,43
639,82	3051,06
640,02	3069,66
640,21	3070,64
640,41	3067,45
640,61	3060,32
640,81	3067,78
641,01	3074,41
641,21	3064,91
641,41	3065,24
641,61	3049,10
641,80	3040,74
642,00	3083,09
642,20	3055,49
642,40	3055,00
642,60	3047,38
642,80	3047,71
642,99	3056,63
643,19	3055,32
643,39	3057,62
643,59	3053,60
643,79	3037,38
643,99	3050,49
644,19	3051,06
644,38	3071,30
644,58	3059,42
644,78	3057,54
644,98	3048,20
645,18	3060,24
645,38	3058,60
645,57	3042,30
645,77	3065,81
645,97	3059,91
646,17	3060,57
646,37	3062,78
646,56	3043,77
646,76	3076,38
646,96	3025,91
647,16	3049,75
647,36	3067,69
647,55	3075,97
647,75	3035,34
647,95	3059,09
648,15	3051,56
648,35	3063,52
648,55	3039,92
648,74	3064,58
648,94	3039,60
649,14	3042,87
649,34	3037,71
649,54	3057,86
649,73	3039,27
649,93	3068,02
650,13	3048,52
650,33	3050,82
650,52	3071,22
650,72	3060,24
650,92	3035,66
651,12	3067,45
651,32	3077,52
651,51	3064,01
651,71	3031,32
651,91	3058,93
652,11	3063,93
652,30	3056,80
652,50	3068,68
652,70	3076,54
652,90	3061,47
653,10	3059,58
653,29	3056,55
653,49	3053,77
653,69	3059,01
653,89	3073,35
654,08	3062,94
654,28	3062,29
654,48	3064,25
654,68	3062,04
654,87	3056,31
655,07	3077,28
655,27	3069,91
655,47	3058,68
655,66	3039,92
655,86	3049,34
656,06	3057,13
656,26	3046,31
656,45	3037,30
656,65	3046,64
656,85	3060,40
657,04	3058,03
657,24	3061,39
657,44	3070,89
657,64	3061,30
657,83	3060,16
658,03	3058,44
658,23	3054,01
658,43	3050,33
658,62	3058,19
658,82	3047,79
659,02	3058,76
659,21	3034,19
659,41	3078,42
659,61	3053,77
659,81	3055,98
660,00	3044,76
660,20	3069,91
660,40	3053,03
660,59	3052,78
660,79	3057,78
660,99	3058,68
661,19	3073,92
661,38	3075,64
661,58	3048,36
661,78	3065,73
661,97	3026,73
662,17	3054,67
662,37	3043,61
662,56	3060,57
662,76	3063,11
662,96	3065,97
663,15	3068,02
663,35	3060,07
663,55	3031,73
663,74	3058,85
663,94	3052,05
664,14	3051,47
664,33	3056,14
664,53	3053,69
664,73	3064,91
664,93	3075,72
665,12	3048,52
665,32	3062,04
665,52	3058,03
665,71	3082,44
665,91	3062,12
666,10	3087,85
666,30	3063,02
666,50	3089,40
666,69	3051,47
666,89	3089,57
667,09	3060,07
667,28	3073,18
667,48	3049,75
667,68	3075,64
667,87	3045,90
668,07	3063,76
668,27	3070,97
668,46	3059,75
668,66	3040,41
668,86	3061,14
669,05	3054,09
669,25	3059,42
669,44	3065,32
669,64	3065,65
669,84	3059,01
670,03	3058,19
670,23	3046,48
670,43	3067,69
670,62	3044,35
670,82	3055,49
671,01	3055,90
671,21	3066,22
671,41	3052,78
671,60	3059,58
671,80	3065,24
672,00	3049,84
672,19	3054,83
672,39	3050,57
672,58	3052,21
672,78	3058,44
672,98	3059,75
673,17	3064,58
673,37	3044,02
673,56	3057,70
673,76	3064,33
673,96	3086,94
674,15	3055,00
674,35	3075,64
674,54	3079,82
674,74	3073,43
674,94	3035,17
675,13	3070,81
675,33	3057,21
675,52	3067,61
675,72	3071,71
675,91	3069,09
676,11	3059,34
676,31	3062,29
676,50	3034,60
676,70	3057,29
676,89	3059,09
677,09	3068,51
677,28	3056,55
677,48	3059,58
677,68	3041,81
677,87	3059,09
678,07	3037,47
678,26	3048,03
678,46	3048,28
678,65	3055,24
678,85	3047,79
679,04	3063,84
679,24	3050,00
679,44	3068,84
679,63	3061,14
679,83	3051,64
680,02	3036,15
680,22	3053,52
680,41	3053,85
680,61	3066,46
680,80	3055,65
681,00	3055,32
681,19	3059,42
681,39	3074,41
681,59	3059,75
681,78	3063,76
681,98	3069,17
682,17	3048,61
682,37	3055,73
682,56	3066,71
682,76	3053,11
682,95	3073,18
683,15	3046,15
683,34	3065,40
683,54	3036,07
683,73	3052,21
683,93	3058,60
684,12	3056,88
684,32	3053,85
684,51	3062,53
684,71	3069,91
684,90	3058,19
685,10	3042,63
685,29	3063,76
685,49	3056,22
685,68	3052,54
685,88	3061,30
686,07	3067,45
686,27	3068,02
686,46	3086,37
686,66	3073,92
686,85	3068,68
687,05	3058,44
687,24	3066,46
687,44	3061,39
687,63	3076,54
687,83	3047,62
688,02	3056,22
688,22	3053,69
688,41	3058,19
688,61	3055,08
688,80	3064,58
689,00	3059,26
689,19	3062,04
689,39	3064,01
689,58	3051,56
689,77	3051,31
689,97	3067,61
690,16	3083,26
690,36	3049,10
690,55	3064,66
690,75	3062,61
690,94	3064,17
691,14	3068,68
691,33	3056,63
691,53	3053,69
691,72	3064,01
691,91	3060,40
692,11	3051,47
692,30	3057,45
692,50	3049,26
692,69	3068,10
692,89	3074,25
693,08	3054,01
693,28	3060,57
693,47	3068,76
693,66	3050,57
693,86	3069,33
694,05	3051,88
694,25	3082,44
694,44	3042,05
694,64	3090,06
694,83	3156,00
695,02	3308,86
695,22	3502,85
695,41	3691,34
695,61	3834,70
695,80	3985,18
695,99	3998,70
696,19	3844,94
696,38	3682,17
696,58	3588,53
696,77	3466,64
696,96	3402,33
697,16	3290,59
697,35	3244,97
697,55	3167,14
697,74	3122,33
697,93	3088,66
698,13	3076,95
698,32	3061,30
698,52	3069,25
698,71	3065,15
698,90	3075,39
699,10	3079,65
699,29	3077,44
699,49	3044,18
699,68	3060,57
699,87	3041,89
700,07	3063,43
700,26	3049,02
700,45	3059,58
700,65	3041,07
700,84	3062,70
701,04	3067,20
701,23	3053,44
701,42	3066,63
701,62	3086,04
701,81	3050,08
702,00	3075,07
702,20	3067,04
702,39	3060,40
702,58	3055,98
702,78	3079,74
702,97	3074,74
703,17	3058,35
703,36	3061,88
703,55	3064,25
703,75	3049,43
703,94	3077,28
704,13	3048,20
704,33	3073,02
704,52	3059,09
704,71	3070,81
704,91	3073,18
705,10	3162,47
705,29	3296,49
705,49	3450,34
705,68	3554,95
705,87	3663,90
706,07	3734,92
706,26	3696,58
706,45	3597,87
706,65	3463,03
706,84	3401,68
707,03	3356,46
707,23	3282,40
707,42	3227,52
707,61	3156,98
707,80	3127,17
708,00	3101,36
708,19	3093,58
708,38	3066,05
708,58	3067,37
708,77	3054,91
708,96	3057,86
709,16	3052,78
709,35	3061,14
709,54	3049,26
709,74	3044,59
709,93	3062,20
710,12	3065,32
710,31	3058,52
710,51	3047,46
710,70	3049,84
710,89	3053,85
711,09	3053,60
711,28	3042,38
711,47	3059,58
711,66	3068,51
711,86	3048,77
712,05	3061,06
712,24	3048,20
712,43	3050,49
712,63	3051,15
712,82	3065,15
713,01	3059,67
713,21	3086,70
713,40	3082,77
713,59	3116,03
713,78	3120,37
713,98	3126,18
714,17	3112,18
714,36	3124,87
714,55	3099,15
714,75	3095,22
714,94	3089,24
715,13	3100,38
715,32	3092,19
715,52	3064,17
715,71	3077,36
715,90	3052,46
716,09	3046,39
716,29	3085,22
716,48	3062,78
716,67	3065,97
716,86	3052,70
717,06	3055,65
717,25	3056,72
717,44	3073,92
717,63	3049,26
717,82	3071,79
718,02	3044,84
718,21	3074,57
718,40	3050,74
718,59	3061,39
718,79	3053,93
718,98	3047,46
719,17	3060,40
719,36	3050,74
719,55	3051,56
719,75	3064,09
719,94	3045,98
720,13	3071,87
720,32	3054,67
720,51	3064,91
720,71	3059,50
720,90	3079,08
721,09	3062,04
721,28	3038,12
721,47	3042,05
721,67	3074,82
721,86	3069,99
722,05	3057,70
722,24	3040,91
722,43	3068,43
722,63	3060,24
722,82	3059,50
723,01	3023,95
723,20	3044,76
723,39	3054,75
723,58	3039,43
723,78	3056,06
723,97	3057,78
724,16	3044,92
724,35	3061,14
724,54	3050,90
724,73	3056,96
724,93	3056,14
725,12	3052,78
725,31	3058,93
725,50	3061,39
725,69	3084,24
725,88	3124,71
726,08	3159,52
726,27	3212,94
726,46	3221,21
726,65	3241,77
726,84	3239,64
727,03	3221,29
727,23	3181,48
727,42	3161,49
727,61	3139,95
727,80	3139,70
727,99	3115,04
728,18	3093,33
728,37	3073,51
728,56	3085,06
728,76	3060,65
728,95	3059,09
729,14	3044,67
729,33	3063,02
729,52	3059,50
729,71	3057,54
729,90	3052,62
730,09	3055,98
730,29	3051,64
730,48	3065,32
730,67	3052,62
730,86	3057,21
731,05	3060,16
731,24	3074,98
731,43	3067,69
731,62	3047,71
731,81	3041,40
732,01	3059,67
732,20	3062,70
732,39	3062,86
732,58	3037,71
732,77	3066,71
732,96	3054,01
733,15	3067,20
733,34	3054,34
733,53	3068,59
733,72	3041,07
733,92	3069,74
734,11	3045,66
734,30	3079,90
734,49	3057,21
734,68	3067,28
734,87	3056,47
735,06	3084,08
735,25	3049,59
735,44	3071,54
735,63	3048,03
735,82	3079,82
736,01	3077,03
736,20	3091,61
736,40	3076,79
736,59	3144,04
736,78	3198,76
736,97	3375,79
737,16	3611,63
737,35	3830,68
737,54	4025,73
737,73	4205,71
737,92	4217,42
738,11	4078,90
738,30	3910,15
738,49	3738,94
738,68	3611,72
738,87	3526,44
739,06	3417,49
739,25	3324,75
739,44	3210,72
739,63	3166,49
739,82	3093,09
740,01	3091,37
740,20	3069,58
740,39	3079,82
740,59	3056,47
740,78	3073,43
740,97	3050,49
741,16	3068,68
741,35	3054,91
741,54	3067,04
741,73	3051,15
741,92	3050,49
742,11	3035,66
742,30	3063,35
742,49	3044,10
742,68	3057,45
742,87	3061,39
743,06	3072,12
743,25	3026,90
743,44	3067,28
743,63	3080,64
743,82	3072,61
744,01	3047,71
744,20	3056,63
744,39	3047,46
744,58	3066,71
744,77	3054,09
744,96	3047,46
745,15	3051,31
745,34	3075,64
745,53	3044,26
745,72	3078,83
745,91	3060,65
746,10	3067,53
746,29	3056,47
746,48	3063,19
746,67	3056,88
746,86	3069,82
747,04	3059,99
747,23	3072,77
747,42	3048,11
747,61	3063,93
747,80	3066,38
747,99	3084,24
748,18	3074,00
748,37	3073,18
748,56	3082,36
748,75	3150,92
748,94	3234,56
749,13	3428,30
749,32	3579,69
749,51	3765,07
749,70	3922,19
749,89	4045,48
750,08	4117,48
750,27	4184,74
750,46	4246,91
750,65	4360,62
750,84	4376,59
751,02	4330,63
751,21	4089,30
751,40	3932,76
751,59	3730,99
751,78	3639,65
751,97	3503,50
752,16	3410,69
752,35	3299,61
752,54	3224,40
752,73	3159,69
752,92	3120,53
753,11	3086,86
753,30	3090,71
753,49	3069,17
753,67	3071,30
753,86	3065,97
754,05	3066,38
754,24	3062,45
754,43	3058,76
754,62	3051,06
754,81	3061,47
755,00	3064,74
755,19	3072,44
755,38	3054,42
755,56	3074,25
755,75	3042,13
755,94	3050,74
756,13	3062,94
756,32	3059,99
756,51	3057,45
756,70	3059,26
756,89	3072,28
757,08	3074,74
757,26	3045,98
757,45	3077,69
757,64	3050,41
757,83	3072,44
758,02	3053,11
758,21	3065,89
758,40	3050,65
758,59	3066,22
758,77	3067,28
758,96	3065,89
759,15	3055,98
759,34	3069,09
759,53	3052,62
759,72	3077,85
759,91	3063,27
760,09	3064,99
760,28	3070,64
760,47	3082,93
760,66	3075,89
760,85	3089,40
761,04	3103,41
761,23	3105,79
761,41	3082,93
761,60	3150,43
761,79	3295,02
761,98	3741,64
762,17	4417,55
762,36	5228,46
762,54	6024,47
762,73	6750,76
762,92	7303,79
763,11	7329,93
763,30	6852,59
763,49	6319,21
763,67	5785,43
763,86	5412,13
764,05	5030,88
764,24	4588,51
764,43	4166,06
764,61	3810,70
764,80	3563,22
764,99	3536,68
765,18	3573,30
765,37	3714,61
765,55	3825,85
765,74	3951,76
765,93	3989,28
766,12	3939,88
766,31	3808,89
766,49	3704,86
766,68	3603,85
766,87	3535,12
767,06	3428,79
767,25	3352,12
767,43	3275,85
767,62	3187,70
767,81	3145,84
768,00	3132,25
768,19	3103,98
768,37	3178,69
768,56	3256,52
768,75	3370,38
768,94	3445,50
769,12	3511,94
769,31	3563,79
769,50	3573,30
769,69	3486,63
769,88	3410,11
770,06	3355,47
770,25	3339,83
770,44	3303,78
770,63	3284,45
770,81	3327,38
771,00	3513,17
771,19	3706,50
771,38	3952,83
771,56	4174,83
771,75	4365,86
771,94	4480,79
772,13	4359,63
772,31	4180,97
772,50	4010,17
772,69	3859,93
772,88	3765,15
773,06	3597,79
773,25	3474,50
773,44	3324,34
773,62	3243,98
773,81	3137,24
774,00	3133,39
774,19	3092,68
774,37	3081,29
774,56	3060,98
774,75	3070,07
774,94	3063,11
775,12	3060,32
775,31	3056,22
775,50	3071,71
775,68	3055,65
775,87	3079,08
776,06	3051,72
776,25	3060,98
776,43	3031,40
776,62	3080,72
776,81	3066,05
776,99	3063,60
777,18	3062,94
777,37	3048,77
777,55	3041,56
777,74	3041,56
777,93	3046,31
778,12	3042,87
778,30	3062,86
778,49	3055,16
778,68	3043,61
778,86	3076,70
779,05	3047,21
779,24	3055,90
779,42	3055,65
779,61	3057,78
779,80	3067,12
779,98	3058,11
780,17	3055,90
780,36	3071,38
780,54	3052,46
780,73	3079,49
780,92	3057,37
781,10	3054,50
781,29	3047,62
781,48	3063,19
781,66	3043,20
781,85	3052,37
782,04	3037,71
782,22	3089,81
782,41	3044,26
782,60	3065,56
782,78	3072,04
782,97	3067,28
783,16	3055,98
783,34	3051,80
783,53	3052,87
783,71	3065,65
783,90	3065,48
784,09	3070,31
784,27	3047,95
784,46	3072,61
784,65	3065,81
784,83	3063,76
785,02	3051,23
785,20	3064,50
785,39	3035,34
785,58	3046,64
785,76	3046,89
785,95	3047,38
786,14	3051,72
786,32	3074,98
786,51	3054,18
786,69	3054,42
786,88	3059,26
787,07	3053,03
787,25	3062,70
787,44	3062,04
787,62	3050,00
787,81	3075,23
788,00	3064,01
788,18	3065,32
788,37	3042,13
788,55	3059,42
788,74	3047,95
788,93	3071,22
789,11	3056,14
789,30	3046,23
789,48	3040,74
789,67	3067,69
789,86	3041,56
790,04	3055,32
790,23	3046,89
790,41	3058,11
790,60	3051,56
790,78	3048,93
790,97	3063,93
791,16	3056,72
791,34	3056,47
791,53	3062,61
791,71	3059,09
791,90	3073,84
792,08	3047,54
792,27	3066,30
792,46	3060,16
792,64	3066,55
792,83	3066,38
793,01	3100,22
793,20	3162,56
793,38	3325,82
793,57	3520,21
793,75	3707,40
793,94	3937,26
794,12	4138,54
794,31	4253,22
794,50	4232,41
794,68	4101,51
794,87	3980,68
795,05	3843,05
795,24	3703,14
795,42	3586,57
795,61	3509,07
795,79	3392,99
795,98	3306,90
796,16	3222,85
796,35	3174,19
796,53	3124,46
796,72	3117,01
796,90	3088,75
797,09	3082,68
797,27	3075,23
797,46	3091,53
797,64	3053,03
797,83	3092,35
798,01	3054,75
798,20	3083,42
798,38	3063,52
798,57	3071,54
798,75	3080,96
798,94	3135,77
799,12	3173,78
799,31	3309,60
799,49	3412,49
799,68	3579,44
799,86	3764,17
800,05	4032,04
800,23	4248,14
800,42	4425,99
800,60	4615,22
800,79	4729,50
800,97	4801,01
801,16	4728,51
801,34	4484,89
801,53	4287,46
801,71	4067,43
801,90	3902,86
802,08	3740,82
802,27	3597,79
802,45	3483,19
802,64	3369,07
802,82	3281,83
803,00	3191,39
803,19	3143,06
803,37	3131,18
803,56	3105,38
803,74	3092,43
803,93	3060,57
804,11	3077,28
804,30	3091,37
804,48	3075,97
804,67	3071,05
804,85	3050,98
805,03	3066,22
805,22	3057,29
805,40	3067,04
805,59	3065,48
805,77	3071,30
805,96	3083,01
806,14	3056,14
806,32	3095,30
806,51	3078,59
806,69	3059,17
806,88	3076,29
807,06	3067,37
807,25	3082,19
807,43	3071,22
807,61	3092,76
807,80	3084,90
807,98	3074,90
808,17	3096,94
808,35	3091,20
808,53	3147,65
808,72	3213,84
808,90	3435,59
809,09	3675,94
809,27	3997,80
809,45	4268,95
809,64	4660,44
809,82	5127,87
810,01	5707,20
810,19	6407,36
810,37	7167,15
810,56	8043,60
810,74	9008,52
810,93	9729,65
811,11	9798,38
811,29	9190,22
811,48	8525,28
811,66	7583,87
811,84	6829,98
812,03	6153,98
812,21	5646,74
812,40	5177,35
812,58	4811,25
812,76	4373,56
812,95	4034,99
813,13	3720,34
813,31	3498,91
813,50	3322,21
813,68	3256,93
813,86	3189,83
814,05	3143,80
814,23	3115,45
814,42	3119,63
814,60	3110,37
814,78	3090,55
814,97	3078,10
815,15	3097,59
815,33	3077,52
815,52	3074,41
815,70	3091,20
815,88	3070,64
816,07	3084,16
816,25	3087,44
816,43	3076,05
816,62	3096,45
816,80	3097,02
816,98	3161,00
817,17	3163,29
817,35	3208,35
817,53	3246,52
817,72	3286,50
817,90	3301,57
818,08	3361,95
818,26	3409,05
818,45	3445,91
818,63	3485,32
818,81	3535,78
819,00	3528,32
819,18	3501,37
819,36	3440,18
819,55	3374,81
819,73	3308,21
819,91	3266,92
820,09	3225,55
820,28	3198,76
820,46	3168,62
820,64	3181,23
820,83	3134,29
821,01	3130,20
821,19	3090,14
821,38	3102,84
821,56	3064,42
821,74	3063,27
821,92	3071,46
822,11	3073,51
822,29	3049,67
822,47	3062,78
822,65	3062,78
822,84	3066,14
823,02	3053,11
823,20	3074,57
823,39	3050,90
823,57	3074,08
823,75	3062,94
823,93	3069,58
824,12	3069,17
824,30	3053,77
824,48	3060,65
824,66	3104,64
824,85	3137,90
825,03	3259,79
825,21	3374,89
825,39	3546,10
825,58	3688,72
825,76	3811,84
825,94	3888,60
826,12	3852,39
826,31	3763,84
826,49	3691,42
826,67	3551,26
826,85	3525,37
827,03	3438,29
827,22	3382,59
827,40	3312,47
827,58	3277,57
827,76	3232,35
827,95	3213,02
828,13	3134,05
828,31	3124,54
828,49	3093,50
828,67	3098,74
828,86	3069,25
829,04	3080,72
829,22	3068,59
829,40	3059,58
829,58	3057,21
829,77	3057,70
829,95	3055,00
830,13	3069,17
830,31	3058,03
830,49	3061,88
830,68	3054,59
830,86	3077,28
831,04	3050,82
831,22	3069,58
831,40	3054,34
831,59	3068,35
831,77	3048,20
831,95	3077,85
832,13	3043,28
832,31	3073,10
832,50	3061,06
832,68	3064,50
832,86	3056,63
833,04	3054,09
833,22	3046,07
833,40	3050,00
833,59	3063,35
833,77	3070,23
833,95	3051,31
834,13	3064,42
834,31	3065,56
834,49	3069,99
834,67	3049,02
834,86	3057,62
835,04	3065,97
835,22	3058,60
835,40	3048,36
835,58	3078,51
835,76	3061,39
835,95	3065,48
836,13	3062,12
836,31	3060,65
836,49	3063,52
836,67	3068,27
836,85	3043,85
837,03	3066,63
837,21	3071,22
837,40	3058,93
837,58	3045,66
837,76	3057,13
837,94	3071,30
838,12	3055,65
838,30	3073,67
838,48	3085,55
838,66	3065,40
838,85	3086,62
839,03	3111,03
839,21	3227,68
839,39	3369,07
839,57	3611,22
839,75	3809,22
839,93	4039,33
840,11	4248,14
840,29	4363,57
840,47	4333,01
840,66	4255,92
840,84	4230,86
841,02	4329,08
841,20	4508,81
841,38	4740,31
841,56	5017,69
841,74	5280,32
841,92	5346,59
842,10	5252,79
842,28	5021,95
842,46	4743,42
842,65	4440,24
842,83	4233,89
843,01	4062,92
843,19	3893,19
843,37	3802,67
843,55	3687,00
843,73	3629,90
843,91	3524,80
844,09	3411,01
844,27	3308,12
844,45	3231,61
844,63	3157,39
844,81	3131,92
844,99	3104,07
845,17	3092,84
845,35	3088,75
845,54	3069,66
845,72	3081,46
845,90	3069,25
846,08	3075,39
846,26	3057,70
846,44	3082,36
846,62	3066,30
846,80	3075,23
846,98	3056,47
847,16	3082,27
847,34	3060,48
847,52	3059,26
847,70	3044,43
847,88	3048,36
848,06	3079,57
848,24	3058,68
848,42	3052,54
848,60	3059,17
848,78	3053,19
848,96	3048,93
849,14	3036,56
849,32	3053,36
849,50	3052,46
849,68	3060,89
849,86	3059,01
850,04	3051,80
850,22	3067,20
850,40	3098,17
850,58	3127,90
850,76	3225,80
850,94	3291,82
851,12	3421,01
851,30	3463,69
851,48	3544,13
851,66	3559,37
851,84	3513,50
852,02	3457,14
852,20	3409,46
852,38	3360,88
852,56	3323,69
852,74	3291,41
852,92	3277,90
853,10	3238,25
853,28	3214,33
853,46	3186,72
853,64	3174,43
853,82	3152,32
854,00	3121,92
854,18	3094,64
854,36	3091,61
854,54	3072,36
854,72	3068,35
854,90	3046,07
855,07	3059,01
855,25	3057,37
855,43	3070,31
855,61	3045,49
855,79	3051,64
855,97	3048,20
856,15	3050,82
856,33	3058,60
856,51	3053,69
856,69	3048,61
856,87	3051,72
857,05	3059,09
857,23	3063,02
857,41	3049,26
857,59	3054,50
857,77	3047,79
857,94	3071,54
858,12	3051,96
858,30	3066,30
858,48	3059,91
858,66	3062,86
858,84	3062,29
859,02	3050,24
859,20	3054,09
859,38	3062,12
859,56	3044,51
859,74	3049,84
859,92	3036,73
860,09	3070,72
860,27	3059,42
860,45	3066,30
860,63	3042,22
860,81	3055,73
860,99	3035,09
861,17	3062,29
861,35	3056,88
861,53	3057,04
861,70	3043,61
861,88	3048,03
862,06	3047,30
862,24	3070,97
862,42	3051,31
862,60	3073,67
862,78	3038,61
862,96	3075,72
863,14	3056,14
863,31	3046,72
863,49	3043,12
863,67	3056,88
863,85	3049,34
864,03	3065,56
864,21	3061,88
864,39	3074,49
864,56	3042,13
864,74	3074,98
864,92	3056,47
865,10	3058,27
865,28	3081,62
865,46	3086,21
865,64	3086,86
865,81	3120,45
865,99	3116,76
866,17	3146,34
866,35	3131,26
866,53	3155,84
866,71	3132,65
866,88	3096,04
867,06	3114,88
867,24	3102,84
867,42	3089,81
867,60	3108,73
867,78	3076,38
867,95	3087,52
868,13	3086,13
868,31	3084,49
868,49	3063,43
868,67	3059,34
868,84	3068,35
869,02	3057,95
869,20	3064,66
869,38	3056,80
869,56	3071,54
869,73	3039,84
869,91	3052,70
870,09	3061,80
870,27	3049,67
870,45	3053,85
870,62	3041,56
870,80	3051,15
870,98	3050,16
871,16	3045,41
871,34	3036,24
871,51	3077,44
871,69	3047,46
871,87	3058,03
872,05	3024,28
872,23	3064,17
872,40	3053,28
872,58	3064,50
872,76	3051,23
872,94	3054,83
873,11	3041,56
873,29	3052,87
873,47	3061,96
873,65	3060,57
873,83	3037,55
874,00	3075,80
874,18	3038,86
874,36	3048,20
874,54	3055,32
874,71	3035,91
874,89	3060,07
875,07	3052,37
875,25	3041,97
875,42	3067,78
875,60	3054,34
875,78	3057,70
875,96	3049,26
876,13	3055,08
876,31	3050,33
876,49	3057,95
876,66	3057,04
876,84	3079,74
877,02	3057,86
877,20	3051,31
877,37	3048,11
877,55	3047,21
877,73	3031,89
877,91	3045,17
878,08	3052,05
878,26	3037,38
878,44	3040,99
878,61	3058,35
878,79	3046,64
878,97	3046,07
879,15	3045,74
879,32	3047,87
879,50	3058,52
879,68	3050,82
879,85	3039,84
880,03	3043,20
880,21	3053,93
880,38	3043,77
880,56	3035,91
880,74	3042,38
880,92	3045,98
881,09	3061,47
881,27	3042,30
881,45	3064,25
881,62	3029,93
881,80	3055,08
881,98	3055,65
882,15	3053,19
882,33	3054,01
882,51	3061,39
882,68	3059,75
882,86	3067,37
883,04	3034,76
883,21	3075,15
883,39	3059,34
883,57	3064,58
883,74	3066,22
883,92	3063,35
884,10	3059,34
884,27	3059,50
884,45	3037,63
884,63	3049,59
884,80	3048,77
884,98	3069,82
885,16	3047,13
885,33	3055,00
885,51	3039,76
885,69	3059,01
885,86	3057,29
886,04	3057,37
886,21	3032,88
886,39	3046,07
886,57	3057,86
886,74	3052,70
886,92	3047,62
887,10	3045,08
887,27	3051,31
887,45	3045,41
887,62	3042,22
887,80	3059,75
887,98	3049,67
888,15	3044,76
888,33	3048,36
888,51	3065,65
888,68	3038,28
888,86	3063,19
889,03	3051,31
889,21	3068,51
889,39	3062,37
889,56	3052,87
889,74	3050,49
889,91	3046,64
890,09	3029,93
890,27	3073,51
890,44	3058,52
890,62	3059,01
890,79	3052,21
890,97	3070,15
891,14	3047,13
891,32	3063,19
891,50	3060,57
891,67	3060,57
891,85	3040,17
892,02	3064,83
892,20	3062,86
892,38	3036,15
892,55	3050,08
892,73	3061,88
892,90	3039,92
893,08	3050,24
893,25	3050,65
893,43	3044,35
893,60	3035,09
893,78	3068,35
893,96	3057,86
894,13	3070,72
894,31	3045,98
894,48	3076,95
894,66	3050,33
894,83	3059,34
895,01	3040,25
895,18	3059,34
895,36	3046,31
895,53	3056,22
895,71	3044,51
895,89	3043,61
896,06	3038,37
896,24	3068,92
896,41	3054,26
896,59	3047,54
896,76	3047,21
896,94	3035,91
897,11	3041,23
897,29	3057,54
897,46	3044,51
897,64	3060,81
897,81	3049,59
897,99	3063,84
898,16	3051,56
898,34	3053,36
898,51	3035,99
898,69	3051,39
898,86	3066,38
899,04	3055,24
899,21	3050,90
899,39	3063,02
899,56	3045,66
899,74	3066,14
899,91	3044,43
900,09	3069,82
900,26	3039,84
900,44	3050,49
900,61	3052,21
900,79	3046,72
900,96	3039,10
901,14	3076,70
901,31	3067,78
901,49	3052,21
901,66	3045,66
901,84	3053,28
902,01	3062,20
902,19	3058,19
902,36	3050,16
902,54	3054,59
902,71	3053,69
902,88	3058,44
903,06	3050,33
903,23	3049,59
903,41	3039,76
903,58	3050,82
903,76	3064,01
903,93	3050,57
904,11	3040,74
904,28	3058,19
904,45	3051,39
904,63	3058,03
904,80	3038,28
904,98	3057,78
905,15	3035,17
905,33	3061,47
905,50	3057,13
905,68	3041,23
905,85	3046,23
906,02	3069,91
906,20	3060,16
906,37	3062,53
906,55	3057,29
906,72	3064,50
906,90	3062,29
907,07	3067,04
907,24	3051,47
907,42	3085,22
907,59	3062,12
907,77	3068,51
907,94	3042,71
908,11	3071,05
908,29	3051,47
908,46	3055,16
908,64	3055,16
908,81	3055,90
908,98	3042,22
909,16	3058,11
909,33	3066,05
909,51	3071,63
909,68	3064,09
909,85	3062,12
910,03	3068,10
910,20	3086,78
910,37	3135,85
910,55	3248,32
910,72	3377,26
910,90	3529,80
911,07	3691,18
911,24	3836,09
911,42	3982,89
911,59	4107,73
911,76	4106,01
911,94	4023,60
912,11	3964,21
912,29	3929,81
912,46	3875,74
912,63	3871,97
912,81	3783,83
912,98	3794,80
913,15	3719,28
913,33	3706,25
913,50	3649,89
913,67	3616,22
913,85	3551,26
914,02	3527,50
914,19	3476,63
914,37	3438,62
914,54	3349,66
914,71	3310,58
914,89	3243,65
915,06	3183,44
915,23	3137,73
915,41	3123,15
915,58	3088,09
915,75	3092,68
915,93	3076,38
916,10	3072,20
916,27	3048,11
916,45	3065,73
916,62	3059,17
916,79	3069,17
916,97	3057,54
917,14	3074,33
917,31	3033,86
917,49	3060,48
917,66	3055,24
917,83	3065,40
918,00	3047,21
918,18	3066,30
918,35	3067,28
918,52	3046,97
918,70	3061,96
918,87	3055,00
919,04	3064,42
919,21	3047,13
919,39	3062,78
919,56	3049,51
919,73	3071,22
919,91	3064,09
920,08	3064,74
920,25	3044,10
920,42	3057,95
920,60	3083,18
920,77	3089,98
920,94	3130,69
921,11	3125,61
921,29	3142,08
921,46	3168,70
921,63	3208,02
921,81	3193,03
921,98	3197,70
922,15	3181,64
922,32	3194,42
922,50	3197,53
922,67	3176,48
922,84	3156,74
923,01	3157,72
923,19	3164,44
923,36	3159,44
923,53	3146,17
923,70	3139,62
923,87	3125,86
924,05	3123,97
924,22	3120,37
924,39	3141,34
924,56	3117,99
924,74	3112,58
924,91	3086,04
925,08	3095,05
925,25	3063,27
925,43	3050,00
925,60	3057,54
925,77	3057,04
925,94	3053,60
926,11	3052,70
926,29	3076,05
926,46	3040,58
926,63	3061,14
926,80	3052,62
926,97	3040,74
927,15	3055,98
927,32	3026,32
927,49	3051,88
927,66	3044,26
927,83	3074,33
928,01	3034,84
928,18	3056,80
928,35	3076,13
928,52	3049,43
928,69	3042,54
928,87	3060,81
929,04	3044,43
929,21	3075,72
929,38	3036,40
929,55	3049,02
929,72	3042,46
929,90	3051,88
930,07	3032,80
930,24	3048,93
930,41	3050,74
930,58	3052,13
930,75	3033,45
930,93	3059,42
931,10	3048,93
931,27	3048,20
931,44	3049,92
931,61	3060,32
931,78	3043,12
931,95	3042,38
932,13	3045,58
932,30	3063,43
932,47	3047,05
932,64	3061,71
932,81	3023,70
932,98	3065,97
933,15	3036,56
933,33	3056,22
933,50	3049,84
933,67	3053,52
933,84	3041,15
934,01	3059,42
934,18	3063,60
934,35	3073,43
934,52	3044,35
934,70	3071,95
934,87	3057,29
935,04	3067,53
935,21	3063,43
935,38	3034,02
935,55	3053,93
935,72	3090,63
935,89	3052,95
936,06	3062,12
936,24	3039,10
936,41	3064,83
936,58	3049,92
936,75	3040,09
936,92	3049,10
937,09	3059,58
937,26	3059,26
937,43	3049,59
937,60	3050,16
937,77	3067,28
937,94	3047,62
938,12	3057,70
938,29	3040,99
938,46	3052,78
938,63	3054,34
938,80	3053,36
938,97	3046,39
939,14	3046,07
939,31	3062,78
939,48	3055,08
939,65	3058,27
939,82	3059,67
939,99	3062,70
940,16	3066,14
940,33	3045,66
940,50	3054,09
940,67	3051,80
940,85	3056,55
941,02	3065,73
941,19	3040,17
941,36	3039,10
941,53	3060,16
941,70	3053,77
941,87	3046,39
942,04	3050,24
942,21	3044,35
942,38	3044,35
942,55	3052,54
942,72	3055,57
942,89	3061,22
943,06	3049,26
943,23	3058,85
943,40	3044,02
943,57	3048,03
943,74	3042,22
943,91	3069,99
944,08	3053,36
944,25	3051,06
944,42	3038,45
944,59	3045,82
944,76	3055,57
944,93	3053,77
945,10	3050,90
945,27	3052,46
945,44	3042,13
945,61	3055,16
945,78	3035,17
945,95	3051,39
946,12	3049,59
946,29	3049,18
946,46	3050,41
946,63	3051,31
946,80	3037,06
946,97	3046,72
947,14	3034,11
947,31	3082,85
947,48	3037,14
947,65	3056,80
947,82	3045,49
947,99	3061,30
948,16	3046,97
948,33	3052,29
948,50	3041,89
948,67	3050,57
948,84	3026,41
949,01	3048,20
949,18	3039,19
949,35	3058,68
949,52	3046,31
949,68	3065,97
949,85	3051,80
950,02	3064,01
950,19	3047,71
950,36	3042,71
950,53	3055,24
950,70	3060,73
950,87	3043,28
951,04	3076,13
951,21	3051,56
951,38	3043,04
951,55	3050,33
951,72	3062,70
951,89	3046,56
952,06	3059,58
952,23	3041,89
952,39	3072,77
952,56	3053,28
952,73	3080,06
952,90	3050,24
953,07	3078,51
953,24	3038,12
953,41	3058,44
953,58	3043,28
953,75	3077,52
953,92	3046,97
954,09	3035,17
954,25	3034,68
954,42	3056,31
954,59	3034,19
954,76	3062,86
954,93	3042,30
955,10	3042,38
955,27	3047,95
955,44	3027,72
955,61	3040,91
955,77	3052,05
955,94	3050,82
956,11	3058,52
956,28	3041,73
956,45	3047,21
956,62	3042,87
956,79	3042,63
956,96	3050,65
957,12	3051,64
957,29	3052,95
957,46	3058,27
957,63	3037,55
957,80	3072,85
957,97	3041,73
958,14	3079,00
958,30	3047,38
958,47	3043,28
958,64	3025,34
958,81	3063,43
958,98	3044,59
959,15	3038,20
959,32	3070,64
959,48	3057,37
959,65	3040,99
959,82	3043,04
959,99	3044,92
960,16	3046,07
960,33	3046,48
960,49	3059,26
960,66	3038,53
960,83	3050,57
961,00	3044,92
961,17	3061,71
961,33	3057,37
961,50	3054,34
961,67	3044,59
961,84	3062,45
962,01	3037,63
962,18	3059,75
962,34	3029,76
962,51	3048,20
962,68	3044,76
962,85	3065,81
963,02	3028,54
963,18	3040,17
963,35	3039,68
963,52	3061,71
963,69	3053,77
963,86	3062,78
964,02	3066,71
964,19	3074,49
964,36	3064,42
964,53	3083,26
964,69	3057,45
964,86	3091,37
965,03	3095,63
965,20	3131,51
965,37	3111,52
965,53	3110,13
965,70	3128,97
965,87	3128,23
966,04	3117,25
966,20	3125,94
966,37	3122,50
966,54	3122,09
966,71	3112,26
966,87	3103,90
967,04	3118,56
967,21	3118,89
967,38	3106,36
967,54	3123,40
967,71	3092,19
967,88	3117,09
968,05	3080,47
968,21	3089,81
968,38	3087,52
968,55	3083,34
968,72	3071,87
968,88	3068,84
969,05	3064,25
969,22	3073,51
969,39	3051,88
969,55	3064,09
969,72	3039,43
969,89	3049,92
970,05	3051,47
970,22	3068,59
970,39	3042,54
970,56	3052,21
970,72	3054,01
970,89	3057,13
971,06	3056,06
971,22	3045,82
971,39	3052,78
971,56	3062,53
971,73	3036,73
971,89	3044,84
972,06	3049,59
972,23	3056,80
972,39	3039,92
972,56	3065,56
972,73	3030,26
972,89	3058,85
973,06	3038,61
973,23	3066,87
973,39	3032,14
973,56	3059,17
973,73	3049,67
973,89	3053,44
974,06	3052,13
974,23	3044,67
974,39	3052,29
974,56	3041,64
974,73	3026,16
974,89	3053,44
975,06	3050,24
975,23	3063,84
975,39	3035,17
975,56	3033,53
975,73	3067,04
975,89	3054,50
976,06	3052,13
976,23	3055,49
976,39	3039,51
976,56	3063,02
976,73	3056,63
976,89	3060,73
977,06	3035,42
977,23	3025,51
977,39	3052,95
977,56	3053,93
977,72	3030,83
977,89	3065,48
978,06	3050,98
978,22	3048,03
978,39	3056,22
978,56	3065,07
978,72	3038,12
978,89	3046,72
979,05	3049,10
979,22	3057,86
979,39	3052,54
979,55	3049,02
979,72	3048,44
979,88	3048,77
980,05	3062,70
980,22	3067,45
980,38	3061,30
980,55	3047,30
980,71	3032,22
980,88	3045,25
981,05	3056,14
981,21	3038,86
981,38	3027,47
981,54	3045,49
981,71	3045,58
981,88	3052,46
982,04	3054,67
982,21	3043,61
982,37	3063,02
982,54	3065,07
982,70	3035,17
982,87	3046,48
983,04	3042,22
983,20	3060,24
983,37	3029,11
983,53	3032,14
983,70	3054,67
983,86	3063,60
984,03	3061,06
984,20	3037,38
984,36	3049,02
984,53	3049,18
984,69	3032,14
984,86	3043,20
985,02	3042,05
985,19	3051,47
985,35	3040,82
985,52	3053,36
985,68	3032,80
985,85	3053,93
986,02	3033,21
986,18	3049,92
986,35	3047,13
986,51	3065,73
986,68	3053,52
986,84	3056,72
987,01	3060,65
987,17	3059,26
987,34	3033,29
987,50	3056,63
987,67	3050,41
987,83	3071,87
988,00	3036,24
988,16	3052,37
988,33	3046,07
988,49	3059,09
988,66	3045,49
988,82	3052,62
988,99	3045,17
989,15	3063,11
989,32	3046,56
989,48	3043,94
989,65	3028,70
989,81	3054,01
989,98	3043,20
990,14	3043,20
990,31	3051,47
990,47	3049,26
990,64	3059,99
990,80	3048,03
990,97	3037,06
991,13	3059,42
991,30	3045,90
991,46	3056,47
991,63	3050,24
991,79	3050,98
991,95	3045,33
992,12	3049,59
992,28	3042,30
992,45	3046,39
992,61	3048,03
992,78	3046,97
992,94	3043,94
993,11	3059,91
993,27	3046,07
993,44	3063,02
993,60	3041,73
993,76	3049,59
993,93	3064,17
994,09	3048,20
994,26	3043,36
994,42	3054,75
994,59	3051,39
994,75	3052,05
994,91	3035,25
995,08	3044,51
995,24	3042,79
995,41	3040,82
995,57	3050,82
995,74	3052,46
995,90	3044,43
996,06	3058,93
996,23	3042,54
996,39	3036,32
996,56	3043,45
996,72	3063,52
996,88	3057,45
997,05	3046,97
997,21	3051,47
997,38	3059,09
997,54	3024,28
997,70	3049,59
997,87	3053,11
998,03	3053,69
998,20	3051,23
998,36	3048,85
998,52	3036,73
998,69	3067,04
998,85	3032,71
999,02	3079,98
999,18	3041,73
999,34	3053,28
999,51	3043,12
999,67	3055,49
999,83	3046,97
1000,00	3041,56
1000,16	3035,34
1000,33	3044,92
1000,49	3021,98
1000,65	3053,03
1000,82	3063,84
1000,98	3060,81
1001,14	3049,43
1001,31	3055,65
1001,47	3058,93
1001,63	3065,15
1001,80	3042,95
1001,96	3038,20
1002,12	3054,67
1002,29	3052,21
1002,45	3032,06
1002,61	3039,51
1002,78	3044,84
1002,94	3050,90
1003,10	3038,04
1003,27	3059,50
1003,43	3019,12
1003,59	3048,77
1003,76	3048,85
1003,92	3068,76
1004,08	3047,62
1004,25	3062,61
1004,41	3050,24
1004,57	3041,81
1004,74	3069,99
1004,90	3063,76
1005,06	3030,75
1005,23	3047,05
1005,39	3051,39
1005,55	3061,55
1005,71	3039,68
1005,88	3066,14
1006,04	3052,87
1006,20	3061,55
1006,37	3035,25
1006,53	3040,00
1006,69	3045,25
1006,85	3052,05
1007,02	3040,66
1007,18	3045,17
1007,34	3028,37
1007,51	3054,91
1007,67	3054,42
1007,83	3034,11
1007,99	3037,06
1008,16	3054,34
1008,32	3044,26
1008,48	3056,63
1008,64	3034,35
1008,81	3055,41
1008,97	3029,60
1009,13	3050,82
1009,29	3045,41
1009,46	3048,03
1009,62	3045,08
1009,78	3047,62
1009,95	3049,43
1010,11	3060,07
1010,27	3040,09
1010,43	3025,51
1010,59	3056,06
1010,76	3045,00
1010,92	3057,78
1011,08	3074,57
1011,24	3038,61
1011,41	3058,35
1011,57	3047,87
1011,73	3062,53
1011,89	3034,43
1012,06	3060,89
1012,22	3043,94
1012,38	3037,55
1012,54	3038,69
1012,70	3054,83
1012,87	3039,84
1013,03	3045,66
1013,19	3039,19
1013,35	3067,94
1013,51	3047,95
1013,68	3061,88
1013,84	3049,02
1014,00	3072,94
1014,16	3035,99
1014,32	3064,25
1014,49	3031,65
1014,65	3070,15
1014,81	3033,62
1014,97	3060,57
1015,13	3055,08
1015,30	3047,38
1015,46	3060,81
1015,62	3061,88
1015,78	3043,36
1015,94	3047,71
1016,10	3028,62
1016,27	3060,57
1016,43	3037,22
1016,59	3039,10
1016,75	3057,95
1016,91	3071,22
1017,07	3046,07
1017,24	3042,22
1017,40	3036,65
1017,56	3046,31
1017,72	3050,00
1017,88	3047,38
1018,04	3039,51
1018,21	3071,71
1018,37	3047,05
1018,53	3061,88
1018,69	3047,87
1018,85	3048,03
1019,01	3038,45
1019,17	3053,03
1019,34	3054,34
1019,50	3062,78
1019,66	3035,09
1019,82	3049,02
1019,98	3053,93
1020,14	3052,78
1020,30	3050,33
1020,46	3066,79
1020,63	3040,58
1020,79	3035,25
1020,95	3050,82
1021,11	3053,85
1021,27	3046,31
1021,43	3045,33
1021,59	3047,79
1021,75	3045,82
1021,91	3025,91
1022,07	3037,47
1022,24	3030,58
1022,40	3034,76
1022,56	3044,59
1022,72	3060,40
1022,88	3038,45
1023,04	3062,37
1023,20	3049,10
1023,36	3048,28
1023,52	3044,43
1023,68	3047,21
1023,84	3042,95
1024,01	3051,39
1024,17	3050,41
1024,33	3053,93
1024,49	3033,37
1024,65	3058,19
1024,81	3037,14
1024,97	3057,13
1025,13	3041,64
1025,29	3049,18
1025,45	3043,04
1025,61	3061,63
1025,77	3048,20
1025,93	3059,99
1026,09	3037,30
1026,25	3042,79
1026,41	3049,75
1026,57	3050,74
1026,73	3046,89
1026,90	3043,28
1027,06	3044,84
1027,22	3052,05
1027,38	3036,97
1027,54	3047,79
1027,70	3055,32
1027,86	3059,34
1028,02	3043,77
1028,18	3060,40
1028,34	3045,66
1028,50	3045,08
1028,66	3037,38
1028,82	3064,17
1028,98	3050,00
1029,14	3051,80
1029,30	3042,79
1029,46	3046,31
1029,62	3032,88
1029,78	3036,24
1029,94	3043,04
1030,10	3050,49
1030,26	3038,37
1030,42	3050,90
1030,58	3033,45
1030,74	3055,49
1030,90	3046,15
1031,06	3052,46
1031,22	3042,30
1031,38	3040,91
1031,54	3050,57
1031,70	3036,89
1031,86	3059,75
1032,02	3050,82
1032,18	3033,70
1032,34	3051,64
1032,50	3038,37
1032,66	3049,84
1032,82	3039,43
1032,98	3043,53
1033,14	3025,51
1033,30	3053,28
1033,45	3026,41
1033,61	3055,82
1033,77	3034,43
1033,93	3043,77
1034,09	3044,43
1034,25	3058,60
1034,41	3043,28
1034,57	3045,90
1034,73	3067,78
1034,89	3050,82
1035,05	3035,66
1035,21	3051,47
1035,37	3050,00
1035,53	3043,36
1035,69	3031,57
1035,85	3057,29
1036,01	3045,25
1036,16	3046,80
1036,32	3058,60
1036,48	3060,89
1036,64	3035,66
1036,80	3060,89
1036,96	3058,27
1037,12	3043,12
1037,28	3044,59
1037,44	3041,48
1037,60	3039,60
1037,76	3049,59
1037,91	3043,28
1038,07	3054,09
1038,23	3045,90
1038,39	3043,61
1038,55	3038,45
1038,71	3051,23
1038,87	3040,99
1039,03	3058,19
1039,19	3042,22
1039,35	3049,43
1039,50	3058,27
1039,66	3069,82
1039,82	3039,84
1039,98	3050,90
1040,14	3048,52
1040,30	3054,59
1040,46	3035,75
1040,62	3032,55
1040,77	3052,70
1040,93	3053,19
1041,09	3028,62
1041,25	3050,41
1041,41	3047,21
1041,57	3058,27
1041,73	3058,27
1041,88	3058,27
>>>>>End Processed Spectral Data<<<<<
