SpectraSuite Data File
++++++++++++++++++++++++++++++++++++
Date: Tue Sep 13 11:03:48 EDT 2022
User: Laboratoire
Dark Spectrum Present: No
Reference Spectrum Present: No
Number of Sampled Component Spectra: 1
Spectrometers: FLMT00174
Integration Time (usec): 3000 (FLMT00174)
Spectra Averaged: 25 (FLMT00174)
Boxcar Smoothing: 0 (FLMT00174)
Correct for Electrical Dark: No (FLMT00174)
Strobe/Lamp Enabled: No (FLMT00174)
Correct for Detector Non-linearity: No (FLMT00174)
Correct for Stray Light: No (FLMT00174)
Number of Pixels in Processed Spectrum: 3648
>>>>>Begin Processed Spectral Data<<<<<
345,74	3052,05
345,96	3052,05
346,18	3052,05
346,39	3075,07
346,61	3075,72
346,83	3073,26
347,05	3067,53
347,27	3089,65
347,49	3059,83
347,71	3076,29
347,93	3068,43
348,15	3081,13
348,36	3075,64
348,58	3077,69
348,80	3062,45
349,02	3080,64
349,24	3075,39
349,46	3081,95
349,68	3068,68
349,90	3069,74
350,11	3087,11
350,33	3098,58
350,55	3077,85
350,77	3069,41
350,99	3083,34
351,21	3090,55
351,43	3078,26
351,65	3073,51
351,86	3059,83
352,08	3081,29
352,30	3071,13
352,52	3074,82
352,74	3064,01
352,96	3075,72
353,18	3069,33
353,39	3083,01
353,61	3065,89
353,83	3076,13
354,05	3084,90
354,27	3082,27
354,49	3061,63
354,70	3083,01
354,92	3080,55
355,14	3084,00
355,36	3065,48
355,58	3091,29
355,80	3066,38
356,02	3083,01
356,23	3069,50
356,45	3054,75
356,67	3081,21
356,89	3087,93
357,11	3069,58
357,33	3065,48
357,54	3074,33
357,76	3072,44
357,98	3062,70
358,20	3077,03
358,42	3081,95
358,63	3082,52
358,85	3066,14
359,07	3081,13
359,29	3088,42
359,51	3088,42
359,73	3053,36
359,94	3083,01
360,16	3077,69
360,38	3078,59
360,60	3078,10
360,82	3093,91
361,03	3081,46
361,25	3062,45
361,47	3075,39
361,69	3090,22
361,91	3076,29
362,12	3080,47
362,34	3075,23
362,56	3089,07
362,78	3067,37
363,00	3075,31
363,21	3072,28
363,43	3074,57
363,65	3066,14
363,87	3080,31
364,09	3078,51
364,30	3075,39
364,52	3074,49
364,74	3079,82
364,96	3073,18
365,17	3074,74
365,39	3070,15
365,61	3074,08
365,83	3054,50
366,05	3070,40
366,26	3080,80
366,48	3075,80
366,70	3075,15
366,92	3090,96
367,13	3080,72
367,35	3097,18
367,57	3068,02
367,79	3074,82
368,01	3075,64
368,22	3088,66
368,44	3064,25
368,66	3088,83
368,88	3086,21
369,09	3080,23
369,31	3080,88
369,53	3095,22
369,75	3067,94
369,96	3076,46
370,18	3076,87
370,40	3078,75
370,62	3067,61
370,83	3066,46
371,05	3070,15
371,27	3086,21
371,49	3069,99
371,70	3080,64
371,92	3091,12
372,14	3084,32
372,36	3072,77
372,57	3090,30
372,79	3072,20
373,01	3069,00
373,22	3068,43
373,44	3087,27
373,66	3061,47
373,88	3082,03
374,09	3075,15
374,31	3078,67
374,53	3078,02
374,75	3067,69
374,96	3069,50
375,18	3080,80
375,40	3074,41
375,61	3061,71
375,83	3074,98
376,05	3079,41
376,27	3067,78
376,48	3075,89
376,70	3068,02
376,92	3075,97
377,13	3065,89
377,35	3084,57
377,57	3061,63
377,79	3075,89
378,00	3068,27
378,22	3082,44
378,44	3074,90
378,65	3070,97
378,87	3078,02
379,09	3079,82
379,30	3070,23
379,52	3086,62
379,74	3066,22
379,96	3080,80
380,17	3064,58
380,39	3083,50
380,61	3077,61
380,82	3078,92
381,04	3065,56
381,26	3076,95
381,47	3077,77
381,69	3078,18
381,91	3076,54
382,12	3081,46
382,34	3062,70
382,56	3077,03
382,77	3074,16
382,99	3089,65
383,21	3091,94
383,42	3083,01
383,64	3078,02
383,86	3077,20
384,07	3068,76
384,29	3077,44
384,51	3081,78
384,72	3076,79
384,94	3074,66
385,16	3066,79
385,37	3073,84
385,59	3081,37
385,81	3081,70
386,02	3072,61
386,24	3082,77
386,46	3086,53
386,67	3077,77
386,89	3094,15
387,11	3085,47
387,32	3077,36
387,54	3079,24
387,76	3080,23
387,97	3078,18
388,19	3087,85
388,40	3056,55
388,62	3087,19
388,84	3072,94
389,05	3082,68
389,27	3059,83
389,49	3074,41
389,70	3069,82
389,92	3073,02
390,14	3077,69
390,35	3077,85
390,57	3063,11
390,78	3083,01
391,00	3075,64
391,22	3086,78
391,43	3084,65
391,65	3076,29
391,86	3062,20
392,08	3065,32
392,30	3056,39
392,51	3091,94
392,73	3072,44
392,95	3085,96
393,16	3054,83
393,38	3074,90
393,59	3083,91
393,81	3090,06
394,03	3075,56
394,24	3080,64
394,46	3085,14
394,67	3082,52
394,89	3080,47
395,11	3088,01
395,32	3074,66
395,54	3086,29
395,75	3089,89
395,97	3072,85
396,19	3067,53
396,40	3080,80
396,62	3076,05
396,83	3082,27
397,05	3070,40
397,26	3063,52
397,48	3054,18
397,70	3078,26
397,91	3077,44
398,13	3074,41
398,34	3059,26
398,56	3080,64
398,78	3054,42
398,99	3084,08
399,21	3068,51
399,42	3085,14
399,64	3067,69
399,85	3082,68
400,07	3077,52
400,29	3100,87
400,50	3079,24
400,72	3077,52
400,93	3059,58
401,15	3080,06
401,36	3078,59
401,58	3094,40
401,79	3069,25
402,01	3075,15
402,23	3076,95
402,44	3083,09
402,66	3088,01
402,87	3089,40
403,09	3079,16
403,30	3068,59
403,52	3073,10
403,73	3081,54
403,95	3069,50
404,16	3088,42
404,38	3067,04
404,60	3082,19
404,81	3069,91
405,03	3075,80
405,24	3071,79
405,46	3079,82
405,67	3068,35
405,89	3088,01
406,10	3065,32
406,32	3073,35
406,53	3095,22
406,75	3093,91
406,96	3067,12
407,18	3075,31
407,39	3066,79
407,61	3098,17
407,82	3097,68
408,04	3079,57
408,25	3063,02
408,47	3078,59
408,68	3074,66
408,90	3095,79
409,12	3077,11
409,33	3094,97
409,55	3078,67
409,76	3076,79
409,98	3081,21
410,19	3090,71
410,41	3073,35
410,62	3081,29
410,84	3071,54
411,05	3086,62
411,27	3083,42
411,48	3093,17
411,70	3084,90
411,91	3094,97
412,12	3089,07
412,34	3087,76
412,55	3071,38
412,77	3087,85
412,98	3091,20
413,20	3070,40
413,41	3081,95
413,63	3090,79
413,84	3079,82
414,06	3091,45
414,27	3080,72
414,49	3087,52
414,70	3083,09
414,92	3083,83
415,13	3079,16
415,35	3089,07
415,56	3087,35
415,78	3089,16
415,99	3083,26
416,21	3089,48
416,42	3084,65
416,63	3104,64
416,85	3093,42
417,06	3085,96
417,28	3094,73
417,49	3099,23
417,71	3104,88
417,92	3082,11
418,14	3080,80
418,35	3117,75
418,57	3091,70
418,78	3105,05
418,99	3091,20
419,21	3103,74
419,42	3076,87
419,64	3101,61
419,85	3080,47
420,07	3096,12
420,28	3087,60
420,50	3106,03
420,71	3075,97
420,92	3095,55
421,14	3091,53
421,35	3098,09
421,57	3074,41
421,78	3099,81
422,00	3055,32
422,21	3099,07
422,42	3082,36
422,64	3098,17
422,85	3095,63
423,07	3113,49
423,28	3090,22
423,50	3097,02
423,71	3103,25
423,92	3094,64
424,14	3089,81
424,35	3087,60
424,57	3091,94
424,78	3099,72
424,99	3090,71
425,21	3108,00
425,42	3093,09
425,64	3104,97
425,85	3092,35
426,06	3113,57
426,28	3093,42
426,49	3099,56
426,71	3118,65
426,92	3130,03
427,13	3103,82
427,35	3125,12
427,56	3093,91
427,78	3116,68
427,99	3111,52
428,20	3122,01
428,42	3109,72
428,63	3124,22
428,84	3110,29
429,06	3142,32
429,27	3107,75
429,49	3112,67
429,70	3118,48
429,91	3134,54
430,13	3113,98
430,34	3124,05
430,56	3126,59
430,77	3133,72
430,98	3128,72
431,20	3144,21
431,41	3144,86
431,62	3154,12
431,84	3135,52
432,05	3157,72
432,26	3141,50
432,48	3155,10
432,69	3143,06
432,91	3157,56
433,12	3163,13
433,33	3172,47
433,55	3161,82
433,76	3173,04
433,97	3165,42
434,19	3184,76
434,40	3178,37
434,61	3193,77
434,83	3166,98
435,04	3193,52
435,25	3204,25
435,47	3202,45
435,68	3183,44
435,89	3231,78
436,11	3205,81
436,32	3221,05
436,53	3214,66
436,75	3240,95
436,96	3217,60
437,17	3238,66
437,39	3209,99
437,60	3275,60
437,81	3237,10
438,03	3256,35
438,24	3248,57
438,45	3298,46
438,67	3270,69
438,88	3308,37
439,09	3303,54
439,31	3306,24
439,52	3312,06
439,73	3331,39
439,94	3263,15
440,16	3321,89
440,37	3305,18
440,58	3354,08
440,80	3341,71
441,01	3371,86
441,22	3407,74
441,44	3421,66
441,65	3363,09
441,86	3421,17
442,08	3390,62
442,29	3452,06
442,50	3416,26
442,71	3464,34
442,93	3438,46
443,14	3467,21
443,35	3459,18
443,57	3474,17
443,78	3466,64
443,99	3581,98
444,20	3464,92
444,42	3548,72
444,63	3516,94
444,84	3585,75
445,06	3582,14
445,27	3616,55
445,48	3519,39
445,69	3651,94
445,91	3580,10
446,12	3609,50
446,33	3608,44
446,54	3715,02
446,76	3640,55
446,97	3711,74
447,18	3683,72
447,39	3757,12
447,61	3726,98
447,82	3816,59
448,03	3708,22
448,25	3845,43
448,46	3797,34
448,67	3885,82
448,88	3783,58
449,10	3947,34
449,31	3905,07
449,52	3931,20
449,73	3862,96
449,95	4066,77
450,16	3931,94
450,37	4102,00
450,58	4149,76
450,79	4032,86
451,01	4013,12
451,22	4056,86
451,43	4037,53
451,64	4235,45
451,86	4124,77
452,07	4241,34
452,28	4184,41
452,49	4328,59
452,71	4203,82
452,92	4250,60
453,13	4304,75
453,34	4386,42
453,55	4400,27
453,77	4533,96
453,98	4408,95
454,19	4470,96
454,40	4460,31
454,62	4645,45
454,83	4440,08
455,04	4724,58
455,25	4502,66
455,46	4959,20
455,68	4645,53
455,89	4761,77
456,10	4732,53
456,31	4820,75
456,52	4811,99
456,74	4845,82
456,95	4994,01
457,16	4991,15
457,37	4974,43
457,58	5093,05
457,80	4957,97
458,01	5106,08
458,22	5358,88
458,43	5191,68
458,64	5229,94
458,86	5121,97
459,07	5233,54
459,28	5290,72
459,49	5318,08
459,70	5715,64
459,91	5450,63
460,13	5586,45
460,34	5555,16
460,55	5623,15
460,76	5709,16
460,97	5699,01
461,19	5689,50
461,40	6042,90
461,61	5747,50
461,82	5965,57
462,03	5951,23
462,24	6057,81
462,46	5936,90
462,67	6113,51
462,88	6146,61
463,09	6177,08
463,30	6243,85
463,51	6227,46
463,72	6418,25
463,94	6512,05
464,15	6427,51
464,36	6431,20
464,57	6619,20
464,78	6678,51
464,99	6665,81
465,20	6718,98
465,42	6825,14
465,63	6867,58
465,84	6817,61
466,05	7078,93
466,26	6986,36
466,47	7269,96
466,68	7049,35
466,90	7363,68
467,11	7228,35
467,32	7466,32
467,53	7405,13
467,74	7365,15
467,95	7433,88
468,16	7738,95
468,37	7670,22
468,59	7827,99
468,80	7939,89
469,01	7808,50
469,22	7964,63
469,43	8297,39
469,64	8018,37
469,85	8235,29
470,06	8227,10
470,28	8548,47
470,49	8119,13
470,70	8531,02
470,91	8719,76
471,12	8573,62
471,33	8926,77
471,54	8796,76
471,75	8741,39
471,96	9266,65
472,17	9036,78
472,39	9407,39
472,60	9147,70
472,81	9502,98
473,02	9339,23
473,23	9727,93
473,44	9672,23
473,65	9682,96
473,86	9660,68
474,07	9927,73
474,28	9887,43
474,49	10404,99
474,71	10176,27
474,92	10471,43
475,13	10235,26
475,34	10506,41
475,55	10516,65
475,76	10713,01
475,97	10824,83
476,18	10951,72
476,39	11100,32
476,60	11260,80
476,81	11278,57
477,02	11633,61
477,23	11430,61
477,44	11615,34
477,65	11675,55
477,87	11985,45
478,08	11997,82
478,29	12149,70
478,50	12343,11
478,71	12251,52
478,92	12393,98
479,13	12575,84
479,34	12569,45
479,55	12789,07
479,76	12777,85
479,97	12988,22
480,18	13251,50
480,39	13057,36
480,60	13418,70
480,81	13469,00
481,02	13500,54
481,23	13643,24
481,44	13907,18
481,65	14160,97
481,86	14242,31
482,07	13945,11
482,28	14750,29
482,49	14468,90
482,71	14430,07
482,92	14762,74
483,13	14838,76
483,34	14815,42
483,55	14979,50
483,76	15081,00
483,97	15255,81
484,18	15374,76
484,39	15508,37
484,60	15540,64
484,81	15750,93
485,02	15777,55
485,23	15983,41
485,44	16171,33
485,65	16273,00
485,86	16278,16
486,07	16590,76
486,28	16574,62
486,49	16728,87
486,70	16935,15
486,91	17102,83
487,12	17064,17
487,33	16979,30
487,54	17504,56
487,75	17435,83
487,96	17631,21
488,17	17486,05
488,38	17869,51
488,59	17807,66
488,80	18077,58
489,01	17955,69
489,22	18321,37
489,43	18272,47
489,64	18229,71
489,85	18545,50
490,06	18398,95
490,26	18613,58
490,47	18694,84
490,68	19001,71
490,89	19256,64
491,10	18844,26
491,31	19292,36
491,52	19359,53
491,73	19391,89
491,94	19316,36
492,15	19641,17
492,36	19752,17
492,57	19757,66
492,78	19733,08
492,99	19871,36
493,20	20075,34
493,41	20134,89
493,62	20163,32
493,83	20198,30
494,04	20393,92
494,25	20580,04
494,46	20518,03
494,67	20493,61
494,88	20628,78
495,08	20821,70
495,29	20844,55
495,50	21195,66
495,71	20950,56
495,92	21257,92
496,13	21189,27
496,34	21040,26
496,55	21129,22
496,76	21661,61
496,97	21163,38
497,18	21684,14
497,39	21485,81
497,60	21970,69
497,81	21529,07
498,02	21998,38
498,22	21625,57
498,43	22111,26
498,64	22041,22
498,85	22103,07
499,06	22133,05
499,27	22582,13
499,48	22014,27
499,69	22314,91
499,90	22390,52
500,11	22494,56
500,32	22828,71
500,52	22492,27
500,73	22954,94
500,94	22961,74
501,15	22856,23
501,36	23046,69
501,57	22738,76
501,78	22952,98
501,99	23256,57
502,20	23253,87
502,41	23255,34
502,61	23199,96
502,82	23455,39
503,03	23299,90
503,24	23537,63
503,45	23483,73
503,66	23718,43
503,87	23750,62
504,08	23870,63
504,28	23713,02
504,49	23824,68
504,70	24000,31
504,91	24054,13
505,12	23910,12
505,33	24125,40
505,54	24219,11
505,75	24234,76
505,95	24532,86
506,16	24256,80
506,37	24210,02
506,58	24632,64
506,79	24167,01
507,00	24748,72
507,21	24472,33
507,41	24442,43
507,62	24554,00
507,83	24865,62
508,04	24626,91
508,25	24834,57
508,46	24708,33
508,67	25055,26
508,87	24832,19
509,08	25117,27
509,29	25170,27
509,50	25205,25
509,71	25182,23
509,92	25311,34
510,12	25222,78
510,33	25294,63
510,54	25332,88
510,75	25365,32
510,96	25724,78
511,17	25784,75
511,37	25827,34
511,58	25884,36
511,79	25750,09
512,00	25709,87
512,21	26045,98
512,42	25952,11
512,62	26140,27
512,83	26243,74
513,04	26125,36
513,25	26328,93
513,46	25831,36
513,66	26606,23
513,87	26390,62
514,08	26684,38
514,29	26569,94
514,50	26490,56
514,71	26824,13
514,91	26620,48
515,12	26547,82
515,33	26777,60
515,54	26702,65
515,75	26975,84
515,95	26879,67
516,16	26831,67
516,37	27118,46
516,58	27272,23
516,78	27156,48
516,99	27426,07
517,20	27321,21
517,41	27382,98
517,62	27419,76
517,82	27452,20
518,03	27899,23
518,24	28077,65
518,45	27613,25
518,66	27894,56
518,86	27766,11
519,07	28064,71
519,28	27713,93
519,49	28176,36
519,69	28284,33
519,90	28303,75
520,11	28369,20
520,32	28229,94
520,52	28558,19
520,73	28217,98
520,94	28704,08
521,15	28558,19
521,36	28384,11
521,56	29085,50
521,77	28696,14
521,98	29076,98
522,19	28813,53
522,39	29072,55
522,60	29007,10
522,81	28968,85
523,02	28950,41
523,22	29239,18
523,43	29453,48
523,64	29227,55
523,84	29306,68
524,05	29581,52
524,26	29746,58
524,47	29455,03
524,67	29694,89
524,88	29698,50
525,09	30139,71
525,30	29820,39
525,50	29759,61
525,71	29939,17
525,92	29975,55
526,13	30282,41
526,33	30085,48
526,54	29888,22
526,75	30229,49
526,95	30472,05
527,16	29966,94
527,37	30358,76
527,58	30519,73
527,78	30486,47
527,99	30856,17
528,20	31059,74
528,40	30930,06
528,61	30746,65
528,82	31137,15
529,03	31129,21
529,23	31065,72
529,44	31277,97
529,65	31408,47
529,85	31381,76
530,06	31377,17
530,27	31421,57
530,47	31185,98
530,68	31894,25
530,89	31338,84
531,09	31870,98
531,30	31849,35
531,51	31564,85
531,72	32107,32
531,92	32043,83
532,13	32366,92
532,34	32207,34
532,54	32227,82
532,75	32429,01
532,96	32429,42
533,16	32538,86
533,37	32836,72
533,58	32488,57
533,78	32921,10
533,99	33004,33
534,20	32641,43
534,40	32806,33
534,61	33090,83
534,82	33240,99
535,02	33264,75
535,23	33112,05
535,44	33428,75
535,64	33249,35
535,85	33582,76
536,06	33564,32
536,26	33638,54
536,47	33595,04
536,68	34127,27
536,88	33567,11
537,09	34170,28
537,29	33685,81
537,50	34428,07
537,71	33972,93
537,91	34296,68
538,12	34488,45
538,33	34167,33
538,53	34512,04
538,74	34630,82
538,95	34614,03
539,15	34567,91
539,36	34781,96
539,56	35054,34
539,77	34774,43
539,98	34883,30
540,18	35108,90
540,39	34913,44
540,60	35138,97
540,80	35440,10
541,01	35259,96
541,21	35402,83
541,42	35494,25
541,63	35592,55
541,83	35751,39
542,04	35701,17
542,25	35637,69
542,45	36087,09
542,66	35989,77
542,86	36287,79
543,07	35401,93
543,28	36227,91
543,48	36103,97
543,69	36429,60
543,89	36238,32
544,10	36836,65
544,31	36586,31
544,51	36605,48
544,72	36738,43
544,92	36646,76
545,13	37074,87
545,33	37003,76
545,54	36870,48
545,75	37155,48
545,95	36945,60
546,16	36983,20
546,36	37558,03
546,57	36799,87
546,78	36012,06
546,98	36732,53
547,19	35972,08
547,39	37135,24
547,60	37531,40
547,80	38134,73
548,01	38034,88
548,22	37772,33
548,42	37926,99
548,63	38163,16
548,83	38041,18
549,04	38324,38
549,24	37907,00
549,45	38295,54
549,65	38745,93
549,86	38095,91
550,07	38412,44
550,27	38798,52
550,48	38876,35
550,68	38761,66
550,89	38614,70
551,09	39052,22
551,30	38787,63
551,50	39160,52
551,71	38981,77
551,91	39017,33
552,12	39144,71
552,33	39418,48
552,53	39159,46
552,74	39669,73
552,94	39823,82
553,15	39605,75
553,35	39821,85
553,56	39514,25
553,76	39979,38
553,97	39660,39
554,17	39805,96
554,38	40434,60
554,58	39923,35
554,79	40467,86
554,99	39976,27
555,20	40029,52
555,40	40597,95
555,61	40387,66
555,81	39977,91
556,02	40903,42
556,22	40826,83
556,43	40658,41
556,63	40697,97
556,84	40485,31
557,04	41220,45
557,25	40617,04
557,45	40916,61
557,66	41005,41
557,86	40823,47
558,07	41441,47
558,27	41044,98
558,48	41245,35
558,68	41215,86
558,89	41535,02
559,09	41608,66
559,30	41366,84
559,50	41802,73
559,71	41455,47
559,91	42043,65
560,12	41827,39
560,32	41790,19
560,53	41989,83
560,73	41675,10
560,94	42309,48
561,14	41714,01
561,35	42422,20
561,55	42025,06
561,76	42296,13
561,96	41887,76
562,17	42216,25
562,37	42509,77
562,57	42312,43
562,78	42267,37
562,98	42596,93
563,19	42722,27
563,39	42842,52
563,60	42894,71
563,80	42558,02
564,01	43098,77
564,21	42695,72
564,42	42808,61
564,62	42977,44
564,82	43236,55
565,03	43010,70
565,23	43144,39
565,44	43381,79
565,64	43102,12
565,85	43529,00
566,05	43220,82
566,25	43710,70
566,46	43357,79
566,66	43683,99
566,87	43684,98
567,07	43722,99
567,28	43779,35
567,48	44082,94
567,68	43442,74
567,89	44458,86
568,09	43932,62
568,30	43901,98
568,50	44382,92
568,71	44158,71
568,91	44383,50
569,11	44093,18
569,32	44074,25
569,52	44446,57
569,73	43895,18
569,93	44435,11
570,13	44303,30
570,34	44279,95
570,54	44538,16
570,75	44361,87
570,95	44423,72
571,15	44385,22
571,36	44929,65
571,56	44512,03
571,77	44471,89
571,97	44302,15
572,17	45077,35
572,38	44916,46
572,58	45092,59
572,79	44831,02
572,99	45012,47
573,19	45009,44
573,40	44967,82
573,60	45193,02
573,81	44949,88
574,01	45284,36
574,21	45147,47
574,42	45228,57
574,62	45035,90
574,82	45521,18
575,03	45257,82
575,23	45679,12
575,43	45392,90
575,64	45417,48
575,84	45677,98
576,05	45297,14
576,25	45656,76
576,45	45494,56
576,66	46182,92
576,86	45745,15
577,06	46067,25
577,27	46068,57
577,47	45981,81
577,67	45868,85
577,88	45387,74
578,08	46175,80
578,28	46117,23
578,49	46088,47
578,69	46104,36
578,89	45883,51
579,10	46089,05
579,30	46707,61
579,50	46290,89
579,71	45918,57
579,91	46590,63
580,11	46217,49
580,32	46240,68
580,52	46190,30
580,72	46703,11
580,93	46213,89
581,13	46241,41
581,33	46756,19
581,54	46318,09
581,74	46458,42
581,94	46737,02
582,15	46908,64
582,35	46679,19
582,55	46864,90
582,76	46552,62
582,96	47141,46
583,16	46755,78
583,37	46981,30
583,57	46757,17
583,77	47183,73
583,97	46363,80
584,18	47396,47
584,38	47115,08
584,58	46907,82
584,79	47169,64
584,99	47136,13
585,19	47195,19
585,40	47101,40
585,60	47530,90
585,80	46946,49
586,00	47291,04
586,21	47299,97
586,41	47415,88
586,61	47617,98
586,82	47484,78
587,02	47372,22
587,22	47770,92
587,42	47139,90
587,63	47915,10
587,83	47200,03
588,03	47579,80
588,23	47244,18
588,44	47626,25
588,64	47402,94
588,84	47663,77
589,05	47762,48
589,25	47859,64
589,45	47872,09
589,65	47635,59
589,86	47840,30
590,06	47978,26
590,26	47813,19
590,46	48198,29
590,67	47653,20
590,87	48107,44
591,07	48427,99
591,27	47850,22
591,48	48401,45
591,68	47769,36
591,88	48568,64
592,08	47793,61
592,29	48314,94
592,49	48117,76
592,69	48444,13
592,89	48076,39
593,10	48237,12
593,30	48180,84
593,50	48562,17
593,70	47747,90
593,90	48609,85
594,11	48350,66
594,31	48466,74
594,51	48736,41
594,71	48835,86
594,92	48872,73
595,12	48527,52
595,32	48669,57
595,52	48997,73
595,72	48190,92
595,93	48950,14
596,13	48655,31
596,33	48450,52
596,53	49007,40
596,73	48793,76
596,94	48795,07
597,14	49023,21
597,34	48831,77
597,54	49231,94
597,74	48674,65
597,95	48944,65
598,15	48999,86
598,35	49215,88
598,55	49297,23
598,75	48904,59
598,96	49465,90
599,16	49025,01
599,36	49226,45
599,56	49165,67
599,76	49002,98
599,97	49586,24
600,17	49332,37
600,37	49558,30
600,57	48715,11
600,77	49862,88
600,97	49386,77
601,18	49986,33
601,38	49476,80
601,58	49745,41
601,78	49584,11
601,98	49246,19
602,18	49723,29
602,39	49996,98
602,59	49707,89
602,79	49728,04
602,99	49792,51
603,19	49844,20
603,39	49695,19
603,60	49772,77
603,80	49698,55
604,00	49684,30
604,20	49758,02
604,40	49923,74
604,60	49567,48
604,80	49687,90
605,01	49791,85
605,21	49804,47
605,41	49719,11
605,61	49390,29
605,81	49835,52
606,01	50240,61
606,21	49656,20
606,42	50058,50
606,62	49696,50
606,82	50206,86
607,02	49842,64
607,22	50087,75
607,42	50269,77
607,62	49633,42
607,82	50099,79
608,03	49985,26
608,23	49997,31
608,43	49676,92
608,63	50260,76
608,83	50268,70
609,03	50178,67
609,23	50216,52
609,43	50265,35
609,63	50001,81
609,84	49964,46
610,04	50451,14
610,24	50339,81
610,44	50432,95
610,64	50111,99
610,84	50312,69
611,04	50642,34
611,24	50494,06
611,44	49896,63
611,64	50568,94
611,85	50436,88
612,05	50503,89
612,25	50638,98
612,45	50307,21
612,65	50517,65
612,85	50737,69
613,05	50375,03
613,25	50921,92
613,45	50678,63
613,65	50716,72
613,85	50214,47
614,05	50714,34
614,25	50892,92
614,46	50566,48
614,66	50444,09
614,86	50181,54
615,06	50480,96
615,26	50712,21
615,46	49936,52
615,66	50866,30
615,86	50652,57
616,06	50387,24
616,26	50420,34
616,46	50957,48
616,66	50434,51
616,86	50883,09
617,06	50550,09
617,26	50958,95
617,46	50580,73
617,66	50435,98
617,86	50314,09
618,07	50746,78
618,27	50642,34
618,47	50714,92
618,67	50864,09
618,87	50912,91
619,07	50609,98
619,27	50434,92
619,47	50408,87
619,67	50935,19
619,87	50476,78
620,07	50874,33
620,27	50757,84
620,47	50499,96
620,67	50604,49
620,87	50751,29
621,07	50887,52
621,27	50965,67
621,47	50440,90
621,67	50926,92
621,87	50448,27
622,07	51142,94
622,27	50884,49
622,47	50552,14
622,67	50893,09
622,87	50446,14
623,07	50826,32
623,27	51226,50
623,47	50243,64
623,67	50614,24
623,87	50963,05
624,07	50820,59
624,27	50391,75
624,47	50811,25
624,67	50563,28
624,87	50785,12
625,07	50579,91
625,27	51057,83
625,47	50613,58
625,67	50530,35
625,87	50798,06
626,07	50584,91
626,27	51032,10
626,47	50850,57
626,67	50665,44
626,87	50286,64
627,07	50936,42
627,27	50808,38
627,47	51034,48
627,67	50729,17
627,87	50810,43
628,07	50955,84
628,27	50738,02
628,47	50544,28
628,67	50922,33
628,86	51008,59
629,06	50547,06
629,26	50429,67
629,46	50938,23
629,66	50917,17
629,86	50455,40
630,06	51007,61
630,26	50628,65
630,46	51169,07
630,66	50747,11
630,86	50777,91
631,06	50940,27
631,26	50632,67
631,46	51109,93
631,66	51051,85
631,86	50672,73
632,06	51172,84
632,26	50831,81
632,45	50810,10
632,65	50783,40
632,85	50966,00
633,05	50804,62
633,25	50945,68
633,45	50623,33
633,65	50725,24
633,85	51262,38
634,05	50549,44
634,25	50807,48
634,45	50917,17
634,65	51366,50
634,84	50924,30
635,04	50885,63
635,24	50580,57
635,44	50925,69
635,64	50578,85
635,84	51015,47
636,04	50885,96
636,24	50828,37
636,44	50879,24
636,64	50431,48
636,84	51250,91
637,03	50555,01
637,23	50947,07
637,43	50971,57
637,63	50671,74
637,83	51132,29
638,03	51037,76
638,23	50646,43
638,43	50987,21
638,62	51343,40
638,82	50366,92
639,02	51087,32
639,22	50658,56
639,42	50953,71
639,62	50422,47
639,82	50645,04
640,02	50637,50
640,21	50879,82
640,41	50232,00
640,61	50673,30
640,81	50453,68
641,01	50421,97
641,21	50406,74
641,41	51087,15
641,61	50463,10
641,80	50453,76
642,00	50905,21
642,20	50833,62
642,40	50239,95
642,60	50753,50
642,80	50924,22
642,99	50425,82
643,19	50910,05
643,39	50320,23
643,59	50803,55
643,79	50587,53
643,99	50910,37
644,19	50707,13
644,38	50299,75
644,58	50639,14
644,78	50335,14
644,98	50412,55
645,18	50780,12
645,38	50987,79
645,57	50412,96
645,77	50584,91
645,97	50379,54
646,17	50705,25
646,37	50514,79
646,56	50391,91
646,76	50472,60
646,96	50443,44
647,16	50211,44
647,36	50555,58
647,55	50365,20
647,75	50632,75
647,95	50176,30
648,15	50558,04
648,35	50481,77
648,55	50573,77
648,74	50473,34
648,94	50351,28
649,14	50783,64
649,34	50440,08
649,54	50305,08
649,73	50354,88
649,93	50179,25
650,13	50283,78
650,33	50097,17
650,52	50547,15
650,72	50773,73
650,92	50369,14
651,12	50025,65
651,32	50405,34
651,51	50419,43
651,71	50543,46
651,91	50317,69
652,11	50187,28
652,30	50110,85
652,50	50501,11
652,70	50559,84
652,90	49971,09
653,10	50408,87
653,29	50078,32
653,49	50415,91
653,69	49892,45
653,89	50069,07
654,08	50057,60
654,28	50298,93
654,48	49989,11
654,68	50218,16
654,87	50080,78
655,07	49663,65
655,27	50095,12
655,47	49878,69
655,66	49815,37
655,86	49817,41
656,06	50242,65
656,26	49587,39
656,45	50049,08
656,65	49990,84
656,85	49901,54
657,04	49751,71
657,24	49657,51
657,44	49581,98
657,64	50210,62
657,83	49346,87
658,03	49967,98
658,23	49785,55
658,43	49757,45
658,62	49717,96
658,82	49506,45
659,02	49474,50
659,21	49499,81
659,41	49316,48
659,61	49802,50
659,81	49413,47
660,00	49163,37
660,20	49484,50
660,40	49215,56
660,59	49358,91
660,79	48945,80
660,99	49601,97
661,19	49514,89
661,38	49474,99
661,58	48766,15
661,78	49340,89
661,97	48808,01
662,17	49665,04
662,37	49040,00
662,56	49096,28
662,76	48959,40
662,96	49079,98
663,15	49221,29
663,35	49105,70
663,55	48737,81
663,74	48733,87
663,94	49161,74
664,14	48699,71
664,33	49091,86
664,53	48904,67
664,73	49314,76
664,93	48595,92
665,12	49099,48
665,32	48807,93
665,52	48939,08
665,71	48799,00
665,91	48898,69
666,10	48787,20
666,30	49098,00
666,50	48559,06
666,69	48532,52
666,89	48812,68
667,09	49086,53
667,28	48564,06
667,48	48367,12
667,68	48425,29
667,87	48491,39
668,07	48311,75
668,27	48794,74
668,46	48875,76
668,66	48691,03
668,86	49101,93
669,05	48641,22
669,25	48865,85
669,44	48561,27
669,64	48547,92
669,84	48633,93
670,03	48872,89
670,23	48512,78
670,43	48644,01
670,62	48479,19
670,82	48470,51
671,01	48737,15
671,21	48309,70
671,41	48291,51
671,60	48486,81
671,80	48736,82
672,00	48382,20
672,19	48619,68
672,39	48487,71
672,58	48355,00
672,78	48322,56
672,98	48835,70
673,17	48613,37
673,37	47877,82
673,56	48327,48
673,76	48154,63
673,96	48596,91
674,15	48379,33
674,35	48455,27
674,54	48245,97
674,74	48312,81
674,94	48281,27
675,13	48369,91
675,33	47865,70
675,52	48510,07
675,72	48235,15
675,91	48255,88
676,11	48548,16
676,31	47746,43
676,50	47903,14
676,70	47896,01
676,89	48128,58
677,09	48329,85
677,28	48248,83
677,48	47707,02
677,68	48257,93
677,87	47886,10
678,07	47889,87
678,26	47910,18
678,46	48051,00
678,65	47804,67
678,85	48136,44
679,04	47544,82
679,24	47847,43
679,44	47633,05
679,63	47906,09
679,83	47855,38
680,02	47742,66
680,22	47566,04
680,41	47830,64
680,61	47558,26
680,80	47493,05
681,00	47788,70
681,19	47709,73
681,39	47483,63
681,59	47355,84
681,78	47347,73
681,98	47647,55
682,17	47143,59
682,37	47354,77
682,56	47006,86
682,76	47409,41
682,95	47167,67
683,15	47188,31
683,34	47146,12
683,54	47197,49
683,73	47237,22
683,93	46762,01
684,12	46992,61
684,32	47322,66
684,51	46890,05
684,71	47144,40
684,90	47061,09
685,10	46971,80
685,29	46930,11
685,49	46947,72
685,68	47084,85
685,88	47004,98
686,07	46638,56
686,27	47205,43
686,46	46929,53
686,66	46610,13
686,85	47075,51
687,05	46685,09
687,24	46597,51
687,44	46965,90
687,63	46810,34
687,83	46250,18
688,02	46713,10
688,22	46871,37
688,41	46449,82
688,61	46514,86
688,80	46606,61
689,00	46086,10
689,19	45986,97
689,39	46466,44
689,58	46333,25
689,77	46339,31
689,97	46540,17
690,16	46222,82
690,36	46113,38
690,55	45781,44
690,75	46677,55
690,94	45998,61
691,14	46522,31
691,33	45919,06
691,53	46373,71
691,72	46031,78
691,91	46220,12
692,11	46131,07
692,30	46399,76
692,50	46228,63
692,69	45955,03
692,89	46149,26
693,08	45913,33
693,28	45790,45
693,47	46043,91
693,66	45858,85
693,86	45899,65
694,05	45654,55
694,25	45711,32
694,44	45720,00
694,64	45565,17
694,83	45679,04
695,02	45737,29
695,22	45896,37
695,41	45685,43
695,61	45408,79
695,80	45558,70
695,99	45389,54
696,19	45500,70
696,38	45556,33
696,58	45073,66
696,77	45730,49
696,96	45541,83
697,16	45312,54
697,35	45285,42
697,55	45140,92
697,74	44944,07
697,93	45554,61
698,13	44987,07
698,32	45269,69
698,52	44988,71
698,71	44675,29
698,90	45390,61
699,10	44896,72
699,29	44965,12
699,49	45387,98
699,68	44996,99
699,87	44873,94
700,07	45324,01
700,26	44948,00
700,45	44786,46
700,65	44515,55
700,84	45023,69
701,04	44546,35
701,23	44937,92
701,42	44741,40
701,62	44645,15
701,81	44737,14
702,00	44565,93
702,20	44233,50
702,39	44525,63
702,58	44636,63
702,78	44247,92
702,97	44315,91
703,17	44388,49
703,36	44391,03
703,55	44206,31
703,75	44159,61
703,94	44383,58
704,13	44068,76
704,33	43872,16
704,52	44363,75
704,71	44271,19
704,91	44247,18
705,10	44003,48
705,29	43855,61
705,49	44061,15
705,68	44041,65
705,87	44113,74
706,07	43510,41
706,26	43982,50
706,45	43313,80
706,65	43318,80
706,84	43833,00
707,03	44125,37
707,23	43420,21
707,42	43349,85
707,61	43718,97
707,80	43491,32
708,00	43522,29
708,19	43513,68
708,38	43843,49
708,58	43159,30
708,77	43684,98
708,96	43221,73
709,16	43021,93
709,35	43846,03
709,54	43430,62
709,74	43186,66
709,93	42787,15
710,12	43664,09
710,31	43749,61
710,51	43187,40
710,70	43183,22
710,89	43268,42
711,09	42651,73
711,28	42569,32
711,47	42814,34
711,66	42704,08
711,86	42575,06
712,05	42702,28
712,24	43004,97
712,43	42752,41
712,63	42265,90
712,82	42935,99
713,01	42656,49
713,21	42310,54
713,40	42375,18
713,59	42855,47
713,78	42166,86
713,98	42767,57
714,17	42348,55
714,36	42461,44
714,55	41998,10
714,75	42141,63
714,94	42170,30
715,13	42356,75
715,32	41878,91
715,52	42263,85
715,71	41829,93
715,90	42152,52
716,09	41918,81
716,29	42139,50
716,48	42123,52
716,67	41465,88
716,86	41752,43
717,06	41635,53
717,25	41528,63
717,44	41795,68
717,63	41771,35
717,82	41350,21
718,02	41476,94
718,21	41608,17
718,40	41656,34
718,59	41480,54
718,79	41178,34
718,98	41148,12
719,17	41576,88
719,36	41641,76
719,55	41220,94
719,75	41143,04
719,94	41029,42
720,13	41445,81
720,32	41173,51
720,51	41056,61
720,71	41148,28
720,90	40586,73
721,09	40908,01
721,28	40727,46
721,47	41133,70
721,67	41001,81
721,86	40933,98
722,05	40963,47
722,24	40472,86
722,43	41073,24
722,63	40551,67
722,82	40658,57
723,01	40711,57
723,20	40511,12
723,39	40399,71
723,58	40891,63
723,78	40182,87
723,97	40757,04
724,16	40180,74
724,35	40356,21
724,54	40004,37
724,73	40412,16
724,93	39956,85
725,12	40266,26
725,31	39525,14
725,50	40067,85
725,69	40215,14
725,88	39940,72
726,08	39600,92
726,27	40034,84
726,46	39195,42
726,65	40072,52
726,84	39431,02
727,03	39621,56
727,23	39929,08
727,42	39383,18
727,61	39318,71
727,80	39195,34
727,99	39388,58
728,18	39464,36
728,37	39291,67
728,56	39010,86
728,76	39014,79
728,95	39218,19
729,14	39201,97
729,33	39083,35
729,52	39057,39
729,71	39193,29
729,90	39113,58
730,09	38778,62
730,29	38946,30
730,48	38420,79
730,67	38877,33
730,86	38489,44
731,05	38777,31
731,24	38473,80
731,43	38535,32
731,62	38275,06
731,81	38221,57
732,01	38659,34
732,20	38143,34
732,39	38465,11
732,58	38216,90
732,77	37685,98
732,96	38118,11
733,15	38325,61
733,34	37968,11
733,53	38153,74
733,72	38048,06
733,92	38056,67
734,11	37859,65
734,30	38104,59
734,49	38112,78
734,68	37892,58
734,87	37786,58
735,06	37855,72
735,25	37855,64
735,44	37741,44
735,63	37810,42
735,82	37932,56
736,01	37611,44
736,20	37680,66
736,40	37828,11
736,59	37798,21
736,78	37837,86
736,97	37430,56
737,16	37426,87
737,35	37644,70
737,54	37456,37
737,73	37408,61
737,92	37496,67
738,11	37671,24
738,30	37280,57
738,49	37390,99
738,68	37370,92
738,87	37581,37
739,06	37213,56
739,25	37485,86
739,44	37272,13
739,63	36966,57
739,82	36839,93
740,01	37231,17
740,20	36737,69
740,39	36938,48
740,59	36720,33
740,78	37066,60
740,97	36770,62
741,16	36776,19
741,35	36806,34
741,54	36869,01
741,73	36847,79
741,92	36716,56
742,11	36390,85
742,30	36799,95
742,49	36125,92
742,68	36624,56
742,87	36364,88
743,06	36084,06
743,25	36341,29
743,44	36325,64
743,63	36453,11
743,82	36152,14
744,01	36062,35
744,20	35862,55
744,39	36089,47
744,58	36187,03
744,77	35821,76
744,96	35727,63
745,15	36019,59
745,34	35866,81
745,53	35868,53
745,72	35620,32
745,91	35590,75
746,10	35329,26
746,29	35706,50
746,48	35740,00
746,67	35506,70
746,86	35633,59
747,04	35521,53
747,23	35318,04
747,42	35468,85
747,61	35253,16
747,80	35674,39
747,99	35074,41
748,18	35350,56
748,37	35388,00
748,56	34652,70
748,75	35096,29
748,94	34947,69
749,13	35116,36
749,32	34775,98
749,51	35007,32
749,70	34932,12
749,89	35020,43
750,08	34843,98
750,27	34561,11
750,46	34810,23
750,65	35143,96
750,84	34538,26
751,02	34874,29
751,21	34570,94
751,40	34741,82
751,59	34642,05
751,78	34612,64
751,97	34621,16
752,16	34422,67
752,35	34662,53
752,54	34265,63
752,73	34520,23
752,92	34252,69
753,11	34190,35
753,30	34418,16
753,49	34414,72
753,67	34382,77
753,86	33878,89
754,05	34389,00
754,24	33885,20
754,43	34056,16
754,62	34026,26
754,81	33885,04
755,00	33876,76
755,19	34024,30
755,38	33432,93
755,56	33978,67
755,75	33975,56
755,94	33761,75
756,13	33602,50
756,32	33910,59
756,51	33479,78
756,70	33708,25
756,89	33538,11
757,08	33560,56
757,26	33494,69
757,45	33598,81
757,64	33067,16
757,83	33723,74
758,02	33331,67
758,21	33350,93
758,40	33218,22
758,59	33427,93
758,77	33066,99
758,96	33299,97
759,15	33368,29
759,34	32989,50
759,53	33103,12
759,72	33178,08
759,91	32696,97
760,09	32995,07
760,28	32930,52
760,47	32655,68
760,66	33033,24
760,85	32660,10
761,04	32902,91
761,23	33001,95
761,41	32690,58
761,60	33013,67
761,79	32552,30
761,98	32516,01
762,17	32779,21
762,36	32472,59
762,54	32531,82
762,73	32436,14
762,92	32107,56
763,11	32614,48
763,30	32366,59
763,49	32430,81
763,67	32215,29
763,86	32312,20
764,05	32333,41
764,24	32343,73
764,43	32453,92
764,61	32141,64
764,80	32175,56
764,99	32716,30
765,18	32129,52
765,37	32296,47
765,55	32333,00
765,74	32148,69
765,93	31871,55
766,12	32207,09
766,31	32040,55
766,49	32187,60
766,68	32125,67
766,87	32213,73
767,06	31797,91
767,25	32144,18
767,43	31960,35
767,62	32007,62
767,81	31926,28
768,00	31801,51
768,19	31401,18
768,37	31723,04
768,56	31527,58
768,75	31788,16
768,94	31640,71
769,12	31498,50
769,31	31360,30
769,50	31420,10
769,69	31467,53
769,88	31167,30
770,06	31652,67
770,25	31462,94
770,44	31230,21
770,63	31671,75
770,81	31316,23
771,00	31310,33
771,19	31293,54
771,38	31380,29
771,56	31449,67
771,75	30941,20
771,94	31186,96
772,13	31290,10
772,31	30758,61
772,50	31336,30
772,69	30915,64
772,88	31444,84
773,06	30772,53
773,25	31104,96
773,44	31089,39
773,62	31076,94
773,81	30958,41
774,00	30994,78
774,19	30806,45
774,37	30879,93
774,56	31049,17
774,75	30658,83
774,94	30924,74
775,12	30686,60
775,31	30816,93
775,50	30856,99
775,68	30717,81
775,87	30699,30
776,06	30490,81
776,25	30879,11
776,43	30564,79
776,62	30896,89
776,81	30316,90
776,99	30745,17
777,18	30553,89
777,37	30247,27
777,55	30349,67
777,74	30615,66
777,93	30306,74
778,12	30516,29
778,30	30129,72
778,49	30358,60
778,68	30243,91
778,86	30387,10
779,05	30354,75
779,24	30501,14
779,42	30084,66
779,61	30072,13
779,80	30144,71
779,98	30491,96
780,17	30248,17
780,36	30105,55
780,54	30297,16
780,73	29853,08
780,92	30223,68
781,10	30193,12
781,29	30024,45
781,48	30047,47
781,66	29972,76
781,85	30280,45
782,04	29925,25
782,22	30175,26
782,41	29704,23
782,60	30020,85
782,78	29879,78
782,97	30155,60
783,16	29495,09
783,34	29761,08
783,53	29761,57
783,71	29727,82
783,90	29572,10
784,09	29703,08
784,27	29630,42
784,46	29628,70
784,65	29603,47
784,83	29538,51
785,02	29244,01
785,20	29846,11
785,39	29101,31
785,58	29829,98
785,76	29438,16
785,95	29549,16
786,14	29601,34
786,32	29745,52
786,51	29488,29
786,69	29855,70
786,88	29550,47
787,07	29648,20
787,25	29403,26
787,44	29685,47
787,62	29461,75
787,81	29790,16
788,00	29479,04
788,18	29557,92
788,37	29253,60
788,55	29956,62
788,74	29412,44
788,93	29691,45
789,11	29796,14
789,30	29533,02
789,48	29294,88
789,67	29686,45
789,86	29448,81
790,04	29805,07
790,23	29512,13
790,41	29584,79
790,60	29607,48
790,78	29829,32
790,97	29298,98
791,16	29728,48
791,34	29944,17
791,53	29567,43
791,71	29837,76
791,90	29709,55
792,08	29661,14
792,27	29856,44
792,46	29621,49
792,64	29842,51
792,83	29494,35
793,01	29806,87
793,20	29703,98
793,38	29811,38
793,57	29737,41
793,75	30055,74
793,94	29814,98
794,12	30346,31
794,31	29733,56
794,50	30179,85
794,68	30264,06
794,87	30153,96
795,05	30255,79
795,24	30276,60
795,42	30086,95
795,61	30757,13
795,79	30475,41
795,98	30208,85
796,16	30505,40
796,35	30613,53
796,53	30265,46
796,72	30843,88
796,90	30537,67
797,09	30903,11
797,27	30521,04
797,46	30628,93
797,64	30657,11
797,83	30714,12
798,01	30639,41
798,20	30877,72
798,38	30444,37
798,57	30872,06
798,75	30586,50
798,94	30269,96
799,12	31041,39
799,31	30818,73
799,49	30699,71
799,68	30668,25
799,86	30573,47
800,05	30856,01
800,23	30603,12
800,42	30649,74
800,60	30828,40
800,79	30568,31
800,97	30575,35
801,16	31106,35
801,34	30376,05
801,53	30605,99
801,71	30621,15
801,90	30485,33
802,08	30623,36
802,27	30716,99
802,45	30231,05
802,64	30602,22
802,82	30697,50
803,00	30392,43
803,19	30446,50
803,37	30934,24
803,56	30366,13
803,74	30607,71
803,93	30628,60
804,11	30682,01
804,30	30294,29
804,48	30680,95
804,67	30567,74
804,85	30705,69
805,03	30723,79
805,22	30524,48
805,40	30305,92
805,59	30737,72
805,77	30596,41
805,96	30604,19
806,14	30445,27
806,32	30716,09
806,51	30796,53
806,69	30658,09
806,88	30474,59
807,06	30460,83
807,25	30379,49
807,43	30613,53
807,61	30320,34
807,80	30478,85
807,98	30437,65
808,17	30283,72
808,35	30052,22
808,53	30671,28
808,72	30275,29
808,90	30513,26
809,09	30468,29
809,27	30770,32
809,45	30241,94
809,64	30631,71
809,82	30125,46
810,01	30332,96
810,19	30299,94
810,37	30345,57
810,56	30109,40
810,74	30498,68
810,93	29989,14
811,11	30269,80
811,29	30017,24
811,48	30339,76
811,66	30021,17
811,84	30062,30
812,03	29796,23
812,21	30065,25
812,40	29979,64
812,58	30431,50
812,76	29947,77
812,95	30363,84
813,13	29792,87
813,31	30138,15
813,50	30091,05
813,68	30119,31
813,86	30067,79
814,05	30379,16
814,23	29775,01
814,42	30197,30
814,60	29793,60
814,78	30044,52
814,97	29864,71
815,15	29872,33
815,33	29710,70
815,52	29748,47
815,70	29628,62
815,88	29875,28
816,07	29325,85
816,25	29812,36
816,43	29325,36
816,62	29242,95
816,80	29551,53
816,98	29610,84
817,17	29370,66
817,35	29598,72
817,53	29487,96
817,72	29847,83
817,90	29195,76
818,08	29621,57
818,26	29552,11
818,45	29473,47
818,63	29546,13
818,81	29708,49
819,00	29056,42
819,18	29698,41
819,36	29347,64
819,55	29599,78
819,73	29089,92
819,91	29597,65
820,09	29111,06
820,28	29593,39
820,46	29054,53
820,64	29695,22
820,83	29150,95
821,01	29368,94
821,19	29016,85
821,38	29374,26
821,56	29069,36
821,74	29514,42
821,92	29021,77
822,11	29399,08
822,29	28861,12
822,47	29014,97
822,65	28886,93
822,84	29164,63
823,02	28660,34
823,20	29306,35
823,39	28697,69
823,57	28986,87
823,75	28785,27
823,93	28823,11
824,12	28716,13
824,30	28755,61
824,48	28623,39
824,66	29059,61
824,85	28063,48
825,03	28869,31
825,21	28834,01
825,39	28675,82
825,58	28645,43
825,76	28603,57
825,94	28492,57
826,12	28577,44
826,31	28141,96
826,49	28543,69
826,67	28582,93
826,85	28439,32
827,03	28460,29
827,22	28811,97
827,40	28382,23
827,58	28506,74
827,76	28562,04
827,95	28398,04
828,13	28295,64
828,31	28364,86
828,49	28344,05
828,67	28357,73
828,86	28041,03
829,04	28294,57
829,22	27946,58
829,40	28105,59
829,58	27845,90
829,77	28065,77
829,95	28029,73
830,13	28024,73
830,31	27875,39
830,49	28099,61
830,68	28097,39
830,86	28113,86
831,04	27843,53
831,22	28183,33
831,40	27918,81
831,59	28251,57
831,77	27785,28
831,95	28096,08
832,13	27608,99
832,31	27990,90
832,50	27666,34
832,68	27672,32
832,86	27647,50
833,04	28070,61
833,22	27321,13
833,40	28101,90
833,59	27471,70
833,77	27958,30
833,95	27129,20
834,13	28217,65
834,31	27645,28
834,49	27737,93
834,67	27456,95
834,86	27758,74
835,04	27395,43
835,22	27565,25
835,40	27272,47
835,58	27353,41
835,76	27110,60
835,95	27338,25
836,13	27118,87
836,31	27056,78
836,49	27173,27
836,67	27454,66
836,85	27019,43
837,03	27041,63
837,21	26927,59
837,40	27016,56
837,58	26593,86
837,76	27064,64
837,94	26860,18
838,12	27283,04
838,30	26738,20
838,48	27010,50
838,66	26744,01
838,85	26941,52
839,03	26898,76
839,21	26968,47
839,39	26793,98
839,57	27025,73
839,75	26724,68
839,93	26977,24
840,11	26878,12
840,29	26943,16
840,47	26842,81
840,66	26942,34
840,84	26708,46
841,02	26817,00
841,20	26652,92
841,38	26838,96
841,56	26660,29
841,74	27165,65
841,92	26620,89
842,10	26704,94
842,28	26751,63
842,46	26621,22
842,65	26348,67
842,83	26704,53
843,01	26574,77
843,19	26369,32
843,37	26350,39
843,55	26273,15
843,73	26234,15
843,91	26325,16
844,09	25921,88
844,27	26474,42
844,45	25998,64
844,63	26113,90
844,81	26022,23
844,99	26119,38
845,17	25961,44
845,35	26317,46
845,54	25907,21
845,72	26132,16
845,90	25951,20
846,08	26210,64
846,26	25770,49
846,44	26328,36
846,62	25620,99
846,80	25894,60
846,98	25737,64
847,16	25829,96
847,34	25803,01
847,52	25853,72
847,70	25458,38
847,88	25911,72
848,06	25492,95
848,24	25894,76
848,42	25698,40
848,60	25728,39
848,78	25730,19
848,96	25775,08
849,14	25517,12
849,32	25856,02
849,50	25475,42
849,68	25786,55
849,86	25525,64
850,04	25324,36
850,22	25187,97
850,40	25189,36
850,58	25249,49
850,76	25837,58
850,94	24886,18
851,12	25366,88
851,30	25059,60
851,48	25378,02
851,66	24987,84
851,84	25089,34
852,02	24829,41
852,20	25284,63
852,38	24731,43
852,56	25156,59
852,74	25025,11
852,92	25210,99
853,10	24879,46
853,28	25416,28
853,46	24656,56
853,64	25195,50
853,82	24815,40
854,00	25165,93
854,18	24595,70
854,36	24699,90
854,54	24791,07
854,72	24714,07
854,90	24432,35
855,07	24715,46
855,25	24485,76
855,43	24708,01
855,61	24237,55
855,79	24473,14
855,97	24412,85
856,15	24661,23
856,33	24233,61
856,51	24668,85
856,69	24105,08
856,87	24603,81
857,05	24126,14
857,23	24484,94
857,41	23930,60
857,59	24099,02
857,77	23957,55
857,94	24049,71
858,12	24093,78
858,30	24057,73
858,48	23746,61
858,66	23916,26
858,84	23919,29
859,02	23756,19
859,20	23551,23
859,38	24113,36
859,56	23755,45
859,74	23837,86
859,92	23642,65
860,09	23585,55
860,27	23622,09
860,45	23554,02
860,63	23392,80
860,81	23653,96
860,99	23443,92
861,17	23272,05
861,35	22653,48
861,53	22730,57
861,70	22581,07
861,88	23317,03
862,06	23189,72
862,24	22977,80
862,42	22695,43
862,60	23341,36
862,78	23179,24
862,96	23292,86
863,14	22943,64
863,31	23116,41
863,49	22812,00
863,67	23136,39
863,85	22904,97
864,03	23194,80
864,21	23046,04
864,39	23169,41
864,56	22824,94
864,74	23022,53
864,92	22817,16
865,10	22812,08
865,28	22715,00
865,46	23201,85
865,64	22451,39
865,81	22836,00
865,99	22279,69
866,17	22835,42
866,35	22367,26
866,53	22488,74
866,71	22333,26
866,88	22597,86
867,06	22054,58
867,24	22418,13
867,42	22078,25
867,60	22399,78
867,78	22022,63
867,95	22493,50
868,13	22019,19
868,31	22444,59
868,49	22171,56
868,67	22273,30
868,84	22064,32
869,02	22221,03
869,20	21614,43
869,38	22144,77
869,56	21779,66
869,73	21856,33
869,91	21726,08
870,09	21983,55
870,27	21483,36
870,45	21871,32
870,62	21352,12
870,80	21893,85
870,98	21487,78
871,16	21661,94
871,34	21484,58
871,51	21795,79
871,69	21375,06
871,87	21713,96
872,05	21406,52
872,23	21685,45
872,40	21188,45
872,58	21584,44
872,76	21133,73
872,94	21288,06
873,11	21264,39
873,29	21095,39
873,47	21152,24
873,65	21126,60
873,83	20967,68
874,00	21147,90
874,18	21047,79
874,36	21023,05
874,54	20939,74
874,71	20957,03
874,89	20596,50
875,07	20875,03
875,25	20685,30
875,42	20964,65
875,60	20742,16
875,78	21121,93
875,96	20712,01
876,13	21057,46
876,31	20522,69
876,49	20796,06
876,66	20488,94
876,84	21117,18
877,02	20576,60
877,20	20945,31
877,37	20643,36
877,55	20825,38
877,73	20509,75
877,91	20651,47
878,08	20614,53
878,26	20635,01
878,44	20395,23
878,61	20660,07
878,79	20214,35
878,97	20478,70
879,15	20353,12
879,32	20581,92
879,50	20332,73
879,68	20721,18
879,85	20194,12
880,03	20628,04
880,21	20240,89
880,38	20649,91
880,56	20179,86
880,74	20674,24
880,92	20143,08
881,09	20520,56
881,27	20192,81
881,45	20421,77
881,62	20026,92
881,80	20323,14
881,98	20066,49
882,15	20411,94
882,33	20011,11
882,51	20395,31
882,68	19986,13
882,86	20460,27
883,04	19952,38
883,21	20183,72
883,39	20275,05
883,57	20274,48
883,74	20179,21
883,92	20420,62
884,10	20308,72
884,27	20428,24
884,45	20186,50
884,63	20562,92
884,80	20276,77
884,98	20455,52
885,16	20124,41
885,33	20111,05
885,51	20104,01
885,69	20292,67
885,86	20007,59
886,04	20432,99
886,21	19988,09
886,39	20308,15
886,57	19779,12
886,74	20391,30
886,92	19940,09
887,10	20493,61
887,27	20203,54
887,45	20444,30
887,62	20173,39
887,80	20422,26
887,98	20437,91
888,15	20570,29
888,33	20184,12
888,51	20634,43
888,68	20193,87
888,86	20594,87
889,03	20268,42
889,21	20552,51
889,39	20487,31
889,56	20623,37
889,74	20289,72
889,91	20622,55
890,09	20371,06
890,27	20517,29
890,44	20181,99
890,62	20495,25
890,79	20405,06
890,97	20512,62
891,14	20210,01
891,32	20385,07
891,50	20217,96
891,67	20519,50
891,85	20411,69
892,02	20441,27
892,20	20560,71
892,38	20683,42
892,55	20356,24
892,73	20675,80
892,90	20392,03
893,08	20668,43
893,25	20371,64
893,43	20808,26
893,60	20407,60
893,78	20762,23
893,96	20448,23
894,13	20699,23
894,31	20682,85
894,48	20559,64
894,66	20457,90
894,83	20606,33
895,01	20340,26
895,18	20655,65
895,36	20235,49
895,53	20597,81
895,71	20408,83
895,89	20605,02
896,06	20263,01
896,24	20581,68
896,41	20304,38
896,59	20639,35
896,76	20140,46
896,94	20521,88
897,11	20403,09
897,29	20453,56
897,46	20133,01
897,64	20350,42
897,81	20206,82
897,99	20150,05
898,16	20301,51
898,34	20371,55
898,51	20143,98
898,69	20230,33
898,86	20093,69
899,04	20240,65
899,21	19863,90
899,39	20207,23
899,56	19875,21
899,74	20278,09
899,91	19948,94
900,09	20021,60
900,26	19952,79
900,44	19933,78
900,61	19944,10
900,79	20255,97
900,96	19998,17
901,14	20023,73
901,31	19813,61
901,49	19981,05
901,66	19827,45
901,84	19935,09
902,01	19598,98
902,19	19851,12
902,36	19480,28
902,54	19831,14
902,71	19562,85
902,88	19835,31
903,06	19302,76
903,23	19794,85
903,41	19454,47
903,58	19605,29
903,76	19132,86
903,93	19549,01
904,11	19503,30
904,28	19468,73
904,45	19220,60
904,63	19383,86
904,80	18895,54
904,98	19353,30
905,15	18920,45
905,33	19260,98
905,50	18969,60
905,68	19120,08
905,85	18783,64
906,02	18887,11
906,20	18945,51
906,37	18755,46
906,55	18581,88
906,72	18935,19
906,90	18543,78
907,07	18476,77
907,24	18404,60
907,42	18341,20
907,59	18181,13
907,77	18232,33
907,94	17941,44
908,11	18289,02
908,29	18007,63
908,46	18096,83
908,64	17653,24
908,81	18001,81
908,98	17678,64
909,16	17958,15
909,33	17599,42
909,51	17673,40
909,68	17477,45
909,85	17649,97
910,03	17454,51
910,20	17313,36
910,37	17271,59
910,55	17346,95
910,72	17208,67
910,90	17137,16
911,07	17043,77
911,24	17033,94
911,42	17050,81
911,59	16917,61
911,76	16783,51
911,94	16864,04
912,11	16648,27
912,29	16865,51
912,46	16384,98
912,63	16772,78
912,81	16301,42
912,98	16587,56
913,15	16317,72
913,33	16597,72
913,50	16345,25
913,67	16321,41
913,85	16096,71
914,02	16411,85
914,19	16061,40
914,37	16215,90
914,54	16083,60
914,71	16083,85
914,89	15947,70
915,06	16024,04
915,23	15732,17
915,41	15777,06
915,58	15636,08
915,75	15723,48
915,93	15606,83
916,10	15699,97
916,27	15461,84
916,45	15670,24
916,62	15302,75
916,79	15607,24
916,97	15225,83
917,14	15420,14
917,31	15037,33
917,49	15229,76
917,66	15089,11
917,83	15073,95
918,00	14891,68
918,18	14985,32
918,35	14712,85
918,52	14981,96
918,70	14526,49
918,87	14772,65
919,04	14511,66
919,21	14666,32
919,39	14348,23
919,56	14637,24
919,73	14191,60
919,91	14488,81
920,08	14299,57
920,25	14314,32
920,42	14304,24
920,60	14299,00
920,77	13984,10
920,94	14226,42
921,11	13883,67
921,29	14165,06
921,46	13701,65
921,63	14147,78
921,81	13699,68
921,98	13815,68
922,15	13638,33
922,32	13814,45
922,50	13556,00
922,67	13699,27
922,84	13437,05
923,01	13418,05
923,19	13282,06
923,36	13411,33
923,53	13025,00
923,70	13286,24
923,87	12972,16
924,05	13247,24
924,22	12886,23
924,39	13079,72
924,56	12639,00
924,74	12998,05
924,91	12837,16
925,08	12840,03
925,25	12675,94
925,43	12816,68
925,60	12518,41
925,77	12837,16
925,94	12521,53
926,11	12582,15
926,29	12327,13
926,46	12578,79
926,63	12189,92
926,80	12450,67
926,97	12103,90
927,15	12339,59
927,32	12026,98
927,49	12063,44
927,66	11864,87
927,83	12114,55
928,01	11775,08
928,18	11889,93
928,35	11648,93
928,52	11878,14
928,69	11523,76
928,87	11690,13
929,04	11428,32
929,21	11615,26
929,38	11299,22
929,55	11532,69
929,72	11204,44
929,90	11356,07
930,07	11136,69
930,24	11184,94
930,41	11052,15
930,58	11147,83
930,75	11022,58
930,93	11029,13
931,10	10954,99
931,27	10952,70
931,44	10770,76
931,61	10847,60
931,78	10703,01
931,95	10849,81
932,13	10491,99
932,30	10772,81
932,47	10361,08
932,64	10592,18
932,81	10298,91
932,98	10433,25
933,15	10309,15
933,33	10324,88
933,50	10280,23
933,67	10240,66
933,84	10082,23
934,01	10311,44
934,18	10030,13
934,35	10220,51
934,52	9967,71
934,70	10238,61
934,87	9947,23
935,04	10061,83
935,21	9904,80
935,38	10060,36
935,55	9773,07
935,72	10004,49
935,89	9780,53
936,06	9920,36
936,24	9601,86
936,41	9857,37
936,58	9491,02
936,75	9668,79
936,92	9457,77
937,09	9601,78
937,26	9303,84
937,43	9529,94
937,60	9239,12
937,77	9349,47
937,94	9213,73
938,12	9390,67
938,29	9069,39
938,46	9264,11
938,63	8972,89
938,80	9246,25
938,97	8909,24
939,14	9040,31
939,31	8807,99
939,48	9087,66
939,65	8714,19
939,82	8924,56
939,99	8743,27
940,16	8915,38
940,33	8649,06
940,50	8779,64
940,67	8594,26
940,85	8764,65
941,02	8486,05
941,19	8770,63
941,36	8457,37
941,53	8636,78
941,70	8390,77
941,87	8450,57
942,04	8303,69
942,21	8513,24
942,38	8206,29
942,55	8254,05
942,72	8147,48
942,89	8294,36
943,06	7975,28
943,23	8103,08
943,40	7880,17
943,57	8057,94
943,74	7908,11
943,91	8013,46
944,08	7818,41
944,25	8011,49
944,42	7653,83
944,59	7825,78
944,76	7667,27
944,93	7879,19
945,10	7595,92
945,27	7766,23
945,44	7427,16
945,61	7723,05
945,78	7427,74
945,95	7534,31
946,12	7316,82
946,29	7612,87
946,46	7328,86
946,63	7361,14
946,80	7265,46
946,97	7445,10
947,14	7138,89
947,31	7385,38
947,48	7169,37
947,65	7254,64
947,82	7119,39
947,99	7264,06
948,16	6962,44
948,33	7353,03
948,50	6976,20
948,67	7036,74
948,84	6936,06
949,01	7065,49
949,18	6834,32
949,35	7079,58
949,52	6717,17
949,68	6994,71
949,85	6756,74
950,02	6874,79
950,19	6627,88
950,36	6835,22
950,53	6635,01
950,70	6690,88
950,87	6490,18
951,04	6715,70
951,21	6309,55
951,38	6577,67
951,55	6373,52
951,72	6481,58
951,89	6293,74
952,06	6476,50
952,23	6234,51
952,39	6370,25
952,56	6117,53
952,73	6265,80
952,90	6067,31
953,07	6358,70
953,24	6046,91
953,41	6258,43
953,58	5954,76
953,75	6200,76
953,92	5936,49
954,09	6051,34
954,25	5849,41
954,42	6059,61
954,59	5733,00
954,76	5897,41
954,93	5687,21
955,10	5934,36
955,27	5639,20
955,44	5835,89
955,61	5591,94
955,77	5830,57
955,94	5540,66
956,11	5761,67
956,28	5554,42
956,45	5693,03
956,62	5494,78
956,79	5634,86
956,96	5495,27
957,12	5661,16
957,29	5390,50
957,46	5594,56
957,63	5363,55
957,80	5535,17
957,97	5301,21
958,14	5510,76
958,30	5228,22
958,47	5451,53
958,64	5181,20
958,81	5416,30
958,98	5099,28
959,15	5317,59
959,32	5086,17
959,48	5239,36
959,65	5093,38
959,82	5204,13
959,99	4967,63
960,16	5182,18
960,33	5068,97
960,49	5123,85
960,66	4874,49
960,83	5085,60
961,00	4883,09
961,17	5022,93
961,33	4801,34
961,50	4961,49
961,67	4750,06
961,84	4991,39
962,01	4741,38
962,18	4904,56
962,34	4703,20
962,51	4854,67
962,68	4621,69
962,85	4795,61
963,02	4554,19
963,18	4752,60
963,35	4496,93
963,52	4649,71
963,69	4546,24
963,86	4640,70
964,02	4369,05
964,19	4599,82
964,36	4411,00
964,53	4526,09
964,69	4280,34
964,86	4542,39
965,03	4298,60
965,20	4416,65
965,37	4202,02
965,53	4344,32
965,70	4202,68
965,87	4360,70
966,04	4174,25
966,20	4322,61
966,37	4184,49
966,54	4270,92
966,71	4198,34
966,87	4228,15
967,04	4135,09
967,21	4215,05
967,38	4101,43
967,54	4178,76
967,71	4029,42
967,88	4184,90
968,05	4039,25
968,21	4081,27
968,38	3978,63
968,55	4101,67
968,72	3966,26
968,88	3998,78
969,05	3957,09
969,22	3975,19
969,39	3847,23
969,55	3955,61
969,72	3841,17
969,89	3910,31
970,05	3841,25
970,22	3946,19
970,39	3805,54
970,56	3909,57
970,72	3779,57
970,89	3892,62
971,06	3785,55
971,22	3884,01
971,39	3740,74
971,56	3819,79
971,73	3719,19
971,89	3845,02
972,06	3699,45
972,23	3809,22
972,39	3684,87
972,56	3788,58
972,73	3616,96
972,89	3726,24
973,06	3650,63
973,23	3712,56
973,39	3622,12
973,56	3679,63
973,73	3599,84
973,89	3664,23
974,06	3555,85
974,23	3623,43
974,39	3547,41
974,56	3611,39
974,73	3486,46
974,89	3536,68
975,06	3480,73
975,23	3558,55
975,39	3457,63
975,56	3534,22
975,73	3453,94
975,89	3519,31
976,06	3418,55
976,23	3458,28
976,39	3430,84
976,56	3453,12
976,73	3407,66
976,89	3446,24
977,06	3398,40
977,23	3428,14
977,39	3383,41
977,56	3417,16
977,72	3346,46
977,89	3402,25
978,06	3348,35
978,22	3370,30
978,39	3345,89
978,56	3376,28
978,72	3304,36
978,89	3365,39
979,05	3317,96
979,22	3365,14
979,39	3275,52
979,55	3329,42
979,72	3279,04
979,88	3343,35
980,05	3266,43
980,22	3333,60
980,38	3261,19
980,55	3310,83
980,71	3262,50
980,88	3313,94
981,05	3273,56
981,21	3313,70
981,38	3244,88
981,54	3287,73
981,71	3235,63
981,88	3275,69
982,04	3231,86
982,21	3281,26
982,37	3211,13
982,54	3238,41
982,70	3212,36
982,87	3242,34
983,04	3210,31
983,20	3261,19
983,37	3209,66
983,53	3233,99
983,70	3196,55
983,86	3235,46
984,03	3202,78
984,20	3211,22
984,36	3194,01
984,53	3211,22
984,69	3182,46
984,86	3209,49
985,02	3190,49
985,19	3215,07
985,35	3164,93
985,52	3190,24
985,68	3175,83
985,85	3174,27
986,02	3151,09
986,18	3195,49
986,35	3164,44
986,51	3173,94
986,68	3149,04
986,84	3179,59
987,01	3140,03
987,17	3171,32
987,34	3145,60
987,50	3160,51
987,67	3142,32
987,83	3160,34
988,00	3131,26
988,16	3144,94
988,33	3135,44
988,49	3170,83
988,66	3151,66
988,82	3148,79
988,99	3149,12
989,15	3161,65
989,32	3119,06
989,48	3163,54
989,65	3125,36
989,81	3148,14
989,98	3112,58
990,14	3130,03
990,31	3126,10
990,47	3145,76
990,64	3118,32
990,80	3137,49
990,97	3105,29
991,13	3131,43
991,30	3114,39
991,46	3120,29
991,63	3109,06
991,79	3123,40
991,95	3116,68
992,12	3129,05
992,28	3119,79
992,45	3133,64
992,61	3122,82
992,78	3126,67
992,94	3095,30
993,11	3120,94
993,27	3108,57
993,44	3103,82
993,60	3103,08
993,76	3110,05
993,93	3089,40
994,09	3101,85
994,26	3096,61
994,42	3106,60
994,59	3098,99
994,75	3110,78
994,91	3107,01
995,08	3114,47
995,24	3098,41
995,41	3087,85
995,57	3107,83
995,74	3098,17
995,90	3091,45
996,06	3103,33
996,23	3094,40
996,39	3109,31
996,56	3082,44
996,72	3104,47
996,88	3096,77
997,05	3090,79
997,21	3090,79
997,38	3110,78
997,54	3091,45
997,70	3085,80
997,87	3079,98
998,03	3090,14
998,20	3071,71
998,36	3084,81
998,52	3095,96
998,69	3097,59
998,85	3067,45
999,02	3096,36
999,18	3093,33
999,34	3089,89
999,51	3074,90
999,67	3101,03
999,83	3076,87
1000,00	3098,33
1000,16	3084,98
1000,33	3084,65
1000,49	3096,94
1000,65	3084,40
1000,82	3087,93
1000,98	3092,68
1001,14	3073,10
1001,31	3091,70
1001,47	3066,05
1001,63	3091,61
1001,80	3068,51
1001,96	3095,30
1002,12	3079,90
1002,29	3081,46
1002,45	3075,89
1002,61	3082,36
1002,78	3085,06
1002,94	3088,34
1003,10	3083,09
1003,27	3108,65
1003,43	3074,82
1003,59	3079,33
1003,76	3081,29
1003,92	3089,07
1004,08	3047,30
1004,25	3092,68
1004,41	3079,49
1004,57	3080,80
1004,74	3061,47
1004,90	3081,46
1005,06	3070,56
1005,23	3065,40
1005,39	3100,87
1005,55	3080,39
1005,71	3062,86
1005,88	3086,04
1006,04	3078,75
1006,20	3081,62
1006,37	3072,61
1006,53	3078,51
1006,69	3071,71
1006,85	3076,87
1007,02	3062,20
1007,18	3078,67
1007,34	3070,31
1007,51	3089,32
1007,67	3072,20
1007,83	3084,00
1007,99	3078,10
1008,16	3064,50
1008,32	3072,04
1008,48	3075,56
1008,64	3081,05
1008,81	3096,20
1008,97	3072,53
1009,13	3081,78
1009,29	3058,11
1009,46	3073,35
1009,62	3077,03
1009,78	3088,75
1009,95	3074,25
1010,11	3084,32
1010,27	3056,63
1010,43	3082,93
1010,59	3077,61
1010,76	3085,47
1010,92	3062,12
1011,08	3083,34
1011,24	3070,07
1011,41	3105,13
1011,57	3069,41
1011,73	3080,14
1011,89	3077,69
1012,06	3086,45
1012,22	3067,37
1012,38	3081,70
1012,54	3067,45
1012,70	3077,93
1012,87	3071,22
1013,03	3080,15
1013,19	3072,12
1013,35	3097,02
1013,51	3072,85
1013,68	3100,22
1013,84	3054,59
1014,00	3097,51
1014,16	3074,90
1014,32	3076,70
1014,49	3063,76
1014,65	3084,90
1014,81	3065,56
1014,97	3079,41
1015,13	3063,27
1015,30	3075,80
1015,46	3085,31
1015,62	3079,00
1015,78	3077,69
1015,94	3070,07
1016,10	3040,17
1016,27	3064,83
1016,43	3068,18
1016,59	3072,53
1016,75	3080,72
1016,91	3081,21
1017,07	3064,50
1017,24	3066,96
1017,40	3081,62
1017,56	3050,08
1017,72	3067,45
1017,88	3075,56
1018,04	3065,24
1018,21	3077,03
1018,37	3064,91
1018,53	3086,62
1018,69	3072,28
1018,85	3069,25
1019,01	3069,66
1019,17	3072,94
1019,34	3071,05
1019,50	3067,69
1019,66	3070,81
1019,82	3081,70
1019,98	3063,02
1020,14	3083,18
1020,30	3065,73
1020,46	3053,36
1020,63	3054,09
1020,79	3093,58
1020,95	3066,30
1021,11	3076,87
1021,27	3061,30
1021,43	3083,42
1021,59	3075,97
1021,75	3077,93
1021,91	3062,29
1022,07	3075,31
1022,24	3059,50
1022,40	3075,97
1022,56	3065,32
1022,72	3071,13
1022,88	3055,24
1023,04	3069,99
1023,20	3066,05
1023,36	3075,23
1023,52	3074,98
1023,68	3085,14
1023,84	3071,05
1024,01	3076,05
1024,17	3051,56
1024,33	3081,95
1024,49	3054,75
1024,65	3091,45
1024,81	3065,89
1024,97	3081,87
1025,13	3058,60
1025,29	3079,24
1025,45	3059,17
1025,61	3069,33
1025,77	3067,61
1025,93	3074,82
1026,09	3082,11
1026,25	3077,69
1026,41	3064,33
1026,57	3073,51
1026,73	3058,03
1026,90	3064,09
1027,06	3068,10
1027,22	3074,98
1027,38	3074,66
1027,54	3089,40
1027,70	3067,69
1027,86	3069,09
1028,02	3059,17
1028,18	3070,07
1028,34	3063,11
1028,50	3062,53
1028,66	3055,16
1028,82	3074,98
1028,98	3076,13
1029,14	3073,18
1029,30	3057,86
1029,46	3073,84
1029,62	3058,03
1029,78	3081,87
1029,94	3058,68
1030,10	3078,92
1030,26	3067,69
1030,42	3066,79
1030,58	3062,29
1030,74	3068,10
1030,90	3065,65
1031,06	3073,43
1031,22	3048,11
1031,38	3064,91
1031,54	3070,07
1031,70	3066,63
1031,86	3060,07
1032,02	3083,50
1032,18	3055,24
1032,34	3080,06
1032,50	3053,28
1032,66	3075,39
1032,82	3062,20
1032,98	3069,82
1033,14	3065,48
1033,30	3078,59
1033,45	3069,09
1033,61	3061,71
1033,77	3073,84
1033,93	3071,54
1034,09	3058,60
1034,25	3077,11
1034,41	3047,54
1034,57	3061,80
1034,73	3051,31
1034,89	3084,81
1035,05	3065,15
1035,21	3083,26
1035,37	3054,34
1035,53	3080,14
1035,69	3053,85
1035,85	3079,16
1036,01	3077,44
1036,16	3072,77
1036,32	3063,76
1036,48	3080,47
1036,64	3058,93
1036,80	3078,02
1036,96	3056,14
1037,12	3086,86
1037,28	3066,05
1037,44	3085,06
1037,60	3073,59
1037,76	3073,26
1037,91	3067,28
1038,07	3078,59
1038,23	3078,92
1038,39	3079,57
1038,55	3061,06
1038,71	3065,89
1038,87	3058,52
1039,03	3091,37
1039,19	3067,45
1039,35	3086,13
1039,50	3057,78
1039,66	3071,71
1039,82	3069,00
1039,98	3074,82
1040,14	3068,92
1040,30	3083,26
1040,46	3047,95
1040,62	3067,61
1040,77	3071,95
1040,93	3078,42
1041,09	3062,94
1041,25	3064,74
1041,41	3074,49
1041,57	3081,87
1041,73	3081,87
1041,88	3081,87
>>>>>End Processed Spectral Data<<<<<
