SpectraSuite Data File
++++++++++++++++++++++++++++++++++++
Date: Tue Sep 13 11:05:12 EDT 2022
User: Laboratoire
Dark Spectrum Present: No
Reference Spectrum Present: No
Number of Sampled Component Spectra: 1
Spectrometers: FLMT00174
Integration Time (usec): 3000 (FLMT00174)
Spectra Averaged: 25 (FLMT00174)
Boxcar Smoothing: 0 (FLMT00174)
Correct for Electrical Dark: No (FLMT00174)
Strobe/Lamp Enabled: No (FLMT00174)
Correct for Detector Non-linearity: No (FLMT00174)
Correct for Stray Light: No (FLMT00174)
Number of Pixels in Processed Spectrum: 3648
>>>>>Begin Processed Spectral Data<<<<<
345,74	3056,06
345,96	3056,06
346,18	3056,06
346,39	3077,52
346,61	3076,38
346,83	3094,81
347,05	3076,21
347,27	3087,52
347,49	3074,41
347,71	3089,40
347,93	3085,88
348,15	3083,83
348,36	3085,96
348,58	3103,66
348,80	3077,85
349,02	3086,86
349,24	3082,36
349,46	3083,26
349,68	3083,26
349,90	3075,89
350,11	3056,14
350,33	3084,57
350,55	3074,00
350,77	3087,93
350,99	3077,69
351,21	3091,20
351,43	3076,13
351,65	3083,34
351,86	3052,46
352,08	3095,05
352,30	3071,05
352,52	3097,43
352,74	3078,83
352,96	3086,45
353,18	3090,47
353,39	3092,68
353,61	3065,48
353,83	3075,80
354,05	3074,41
354,27	3082,27
354,49	3074,57
354,70	3088,75
354,92	3056,63
355,14	3087,85
355,36	3068,59
355,58	3094,40
355,80	3083,26
356,02	3089,98
356,23	3080,31
356,45	3078,75
356,67	3078,42
356,89	3085,14
357,11	3075,56
357,33	3074,16
357,54	3091,94
357,76	3072,77
357,98	3084,98
358,20	3085,80
358,42	3081,29
358,63	3107,92
358,85	3067,28
359,07	3088,25
359,29	3080,55
359,51	3083,01
359,73	3078,26
359,94	3086,86
360,16	3086,86
360,38	3091,70
360,60	3076,05
360,82	3089,73
361,03	3087,35
361,25	3064,99
361,47	3080,23
361,69	3076,29
361,91	3080,72
362,12	3085,06
362,34	3083,18
362,56	3113,90
362,78	3083,59
363,00	3085,47
363,21	3064,42
363,43	3093,74
363,65	3096,53
363,87	3085,31
364,09	3088,99
364,30	3071,95
364,52	3067,86
364,74	3085,14
364,96	3075,15
365,17	3084,24
365,39	3075,39
365,61	3087,44
365,83	3081,87
366,05	3075,31
366,26	3084,08
366,48	3078,92
366,70	3071,46
366,92	3089,07
367,13	3083,75
367,35	3107,42
367,57	3063,76
367,79	3089,48
368,01	3082,60
368,22	3087,03
368,44	3073,18
368,66	3083,01
368,88	3075,07
369,09	3070,81
369,31	3084,32
369,53	3093,50
369,75	3084,49
369,96	3094,24
370,18	3074,49
370,40	3080,64
370,62	3076,29
370,83	3081,54
371,05	3077,77
371,27	3082,27
371,49	3093,83
371,70	3087,44
371,92	3079,08
372,14	3094,15
372,36	3085,31
372,57	3090,79
372,79	3077,44
373,01	3070,48
373,22	3065,97
373,44	3085,96
373,66	3073,59
373,88	3087,93
374,09	3073,59
374,31	3070,89
374,53	3079,74
374,75	3077,11
374,96	3063,43
375,18	3081,37
375,40	3077,77
375,61	3073,10
375,83	3085,31
376,05	3078,42
376,27	3082,27
376,48	3079,49
376,70	3075,48
376,92	3077,85
377,13	3085,72
377,35	3072,53
377,57	3078,18
377,79	3088,58
378,00	3075,48
378,22	3070,15
378,44	3080,96
378,65	3094,24
378,87	3071,05
379,09	3080,23
379,30	3085,55
379,52	3091,86
379,74	3072,85
379,96	3091,45
380,17	3081,95
380,39	3089,32
380,61	3092,43
380,82	3079,49
381,04	3076,87
381,26	3095,46
381,47	3086,21
381,69	3097,35
381,91	3078,18
382,12	3096,69
382,34	3087,03
382,56	3086,62
382,77	3083,09
382,99	3088,99
383,21	3062,86
383,42	3095,46
383,64	3067,12
383,86	3087,44
384,07	3092,60
384,29	3096,36
384,51	3077,52
384,72	3077,85
384,94	3069,41
385,16	3088,09
385,37	3073,76
385,59	3080,80
385,81	3095,55
386,02	3082,68
386,24	3084,08
386,46	3087,68
386,67	3082,19
386,89	3093,42
387,11	3084,24
387,32	3088,09
387,54	3079,65
387,76	3087,52
387,97	3077,36
388,19	3096,12
388,40	3078,59
388,62	3092,11
388,84	3089,73
389,05	3079,41
389,27	3083,01
389,49	3107,34
389,70	3073,02
389,92	3080,88
390,14	3074,25
390,35	3094,15
390,57	3075,31
390,78	3090,38
391,00	3076,05
391,22	3094,40
391,43	3081,46
391,65	3108,82
391,86	3077,85
392,08	3080,80
392,30	3073,92
392,51	3090,96
392,73	3081,54
392,95	3077,11
393,16	3067,12
393,38	3085,39
393,59	3079,00
393,81	3085,22
394,03	3085,47
394,24	3092,35
394,46	3081,62
394,67	3087,68
394,89	3066,87
395,11	3082,27
395,32	3075,23
395,54	3077,61
395,75	3087,11
395,97	3079,90
396,19	3078,92
396,40	3091,45
396,62	3083,59
396,83	3088,01
397,05	3070,81
397,26	3083,09
397,48	3085,47
397,70	3089,57
397,91	3081,87
398,13	3085,96
398,34	3090,22
398,56	3082,03
398,78	3071,87
398,99	3106,93
399,21	3080,31
399,42	3090,22
399,64	3078,59
399,85	3092,43
400,07	3080,31
400,29	3087,27
400,50	3088,75
400,72	3087,44
400,93	3076,21
401,15	3081,21
401,36	3079,90
401,58	3081,70
401,79	3064,74
402,01	3087,35
402,23	3083,50
402,44	3093,33
402,66	3066,96
402,87	3078,34
403,09	3078,67
403,30	3102,59
403,52	3073,92
403,73	3095,55
403,95	3068,59
404,16	3101,28
404,38	3074,57
404,60	3104,56
404,81	3080,23
405,03	3074,08
405,24	3071,87
405,46	3093,66
405,67	3093,66
405,89	3094,24
406,10	3070,81
406,32	3090,38
406,53	3082,52
406,75	3087,11
406,96	3060,48
407,18	3098,09
407,39	3084,81
407,61	3089,57
407,82	3081,54
408,04	3094,64
408,25	3071,95
408,47	3076,38
408,68	3083,18
408,90	3108,33
409,12	3079,82
409,33	3098,74
409,55	3072,85
409,76	3089,16
409,98	3095,96
410,19	3089,81
410,41	3091,53
410,62	3102,34
410,84	3067,12
411,05	3085,88
411,27	3092,19
411,48	3095,14
411,70	3095,30
411,91	3089,98
412,12	3076,54
412,34	3082,03
412,55	3087,03
412,77	3103,25
412,98	3086,13
413,20	3102,34
413,41	3100,13
413,63	3088,99
413,84	3103,90
414,06	3099,48
414,27	3093,01
414,49	3095,87
414,70	3079,65
414,92	3104,31
415,13	3074,33
415,35	3114,22
415,56	3102,02
415,78	3095,46
415,99	3076,70
416,21	3099,15
416,42	3092,19
416,63	3107,26
416,85	3099,07
417,06	3106,85
417,28	3112,91
417,49	3099,97
417,71	3112,09
417,92	3103,98
418,14	3098,82
418,35	3082,19
418,57	3084,16
418,78	3092,60
418,99	3090,55
419,21	3123,73
419,42	3076,38
419,64	3116,52
419,85	3094,64
420,07	3116,52
420,28	3087,68
420,50	3109,31
420,71	3090,63
420,92	3120,69
421,14	3129,46
421,35	3122,66
421,57	3098,25
421,78	3120,37
422,00	3115,78
422,21	3124,14
422,42	3097,18
422,64	3129,38
422,85	3107,51
423,07	3120,37
423,28	3103,25
423,50	3119,79
423,71	3121,76
423,92	3132,16
424,14	3133,88
424,35	3135,28
424,57	3114,14
424,78	3134,70
424,99	3140,44
425,21	3141,17
425,42	3142,24
425,64	3132,65
425,85	3131,43
426,06	3153,79
426,28	3135,69
426,49	3172,14
426,71	3157,64
426,92	3169,11
427,13	3138,72
427,35	3185,16
427,56	3144,78
427,78	3174,76
427,99	3177,05
428,20	3188,93
428,42	3168,54
428,63	3191,64
428,84	3166,00
429,06	3214,74
429,27	3184,67
429,49	3199,09
429,70	3212,28
429,91	3208,92
430,13	3210,23
430,34	3240,13
430,56	3225,06
430,77	3247,51
430,98	3218,51
431,20	3264,87
431,41	3220,96
431,62	3261,19
431,84	3238,74
432,05	3289,69
432,26	3273,88
432,48	3294,77
432,69	3262,58
432,91	3327,46
433,12	3283,80
433,33	3335,73
433,55	3327,70
433,76	3366,04
433,97	3305,34
434,19	3394,71
434,40	3362,93
434,61	3417,16
434,83	3377,18
435,04	3400,12
435,25	3413,47
435,47	3443,45
435,68	3379,97
435,89	3521,69
436,11	3449,76
436,32	3501,78
436,53	3456,40
436,75	3529,80
436,96	3480,65
437,17	3495,80
437,39	3503,26
437,60	3581,32
437,81	3516,28
438,03	3596,15
438,24	3552,41
438,45	3678,32
438,67	3583,21
438,88	3705,02
439,09	3674,88
439,31	3704,61
439,52	3666,52
439,73	3768,10
439,94	3649,89
440,16	3812,25
440,37	3705,84
440,58	3817,66
440,80	3807,34
441,01	3848,79
441,22	3933,16
441,44	3966,75
441,65	3870,01
441,86	3985,10
442,08	3927,68
442,29	4010,50
442,50	3953,73
442,71	4037,28
442,93	4046,70
443,14	4079,55
443,35	4117,40
443,57	4097,00
443,78	4075,29
443,99	4252,73
444,20	4049,41
444,42	4262,23
444,63	4166,88
444,84	4290,99
445,06	4341,53
445,27	4357,91
445,48	4241,75
445,69	4420,42
445,91	4320,39
446,12	4380,69
446,33	4388,63
446,54	4565,50
446,76	4450,07
446,97	4570,82
447,18	4468,91
447,39	4619,56
447,61	4592,53
447,82	4749,16
448,03	4597,77
448,25	4758,66
448,46	4743,75
448,67	4917,58
448,88	4705,82
449,10	4967,06
449,31	4921,51
449,52	4911,11
449,73	4876,62
449,95	5143,84
450,16	4905,87
450,37	5243,86
450,58	5302,44
450,79	5116,65
451,01	5121,40
451,22	5203,81
451,43	5175,87
451,64	5402,71
451,86	5279,75
452,07	5425,40
452,28	5382,96
452,49	5589,40
452,71	5374,69
452,92	5515,75
453,13	5556,22
453,34	5647,31
453,55	5718,01
453,77	5907,82
453,98	5781,01
454,19	5804,27
454,40	5789,36
454,62	6044,29
454,83	5742,01
455,04	6175,77
455,25	5875,21
455,46	6413,01
455,68	6044,87
455,89	6206,98
456,10	6164,80
456,31	6304,30
456,52	6270,96
456,74	6325,93
456,95	6517,05
457,16	6509,59
457,37	6531,46
457,58	6602,90
457,80	6567,67
458,01	6650,16
458,22	7038,70
458,43	6799,09
458,64	6888,38
458,86	6717,09
459,07	6866,92
459,28	6870,53
459,49	6985,21
459,70	7477,46
459,91	7170,84
460,13	7325,26
460,34	7282,09
460,55	7356,14
460,76	7460,34
460,97	7503,84
461,19	7508,43
461,40	7893,94
461,61	7564,30
461,82	7800,71
462,03	7762,54
462,24	7963,65
462,46	7789,41
462,67	7981,26
462,88	8015,59
463,09	8063,34
463,30	8172,71
463,51	8178,28
463,72	8412,56
463,94	8555,59
464,15	8418,71
464,36	8459,83
464,57	8744,17
464,78	8691,66
464,99	8771,29
465,20	8776,61
465,42	8874,34
465,63	8956,26
465,84	8876,31
466,05	9198,08
466,26	9184,07
466,47	9440,32
466,68	9217,99
466,90	9604,40
467,11	9420,16
467,32	9714,09
467,53	9683,45
467,74	9624,47
467,95	9754,97
468,16	10018,50
468,37	10059,21
468,59	10165,13
468,80	10328,07
469,01	10161,45
469,22	10395,00
469,43	10759,37
469,64	10451,03
469,85	10716,77
470,06	10762,32
470,28	10986,29
470,49	10602,99
470,70	11135,22
470,91	11332,56
471,12	11189,69
471,33	11558,65
471,54	11418,57
471,75	11421,60
471,96	11958,17
472,17	11745,59
472,39	12251,60
472,60	11822,10
472,81	12316,65
473,02	12179,11
473,23	12661,61
473,44	12591,81
473,65	12558,64
473,86	12618,76
474,07	12935,22
474,28	12864,11
474,49	13441,88
474,71	13238,07
474,92	13658,64
475,13	13378,72
475,34	13668,96
475,55	13680,35
475,76	13866,71
475,97	14133,20
476,18	14226,67
476,39	14416,14
476,60	14624,05
476,81	14652,15
477,02	15049,46
477,23	14884,72
477,44	15014,81
477,65	15187,00
477,87	15563,91
478,08	15587,91
478,29	15697,03
478,50	16091,55
478,71	15940,57
478,92	16160,85
479,13	16410,46
479,34	16375,31
479,55	16633,68
479,76	16661,70
479,97	16825,29
480,18	17247,58
480,39	16998,55
480,60	17381,27
480,81	17498,91
481,02	17551,17
481,23	17760,64
481,44	18077,50
481,65	18260,43
481,86	18559,35
482,07	18199,48
482,28	19185,29
482,49	18838,28
482,71	18894,89
482,92	19254,02
483,13	19455,13
483,34	19348,96
483,55	19560,07
483,76	19725,63
483,97	19971,22
484,18	20072,22
484,39	20281,20
484,60	20313,15
484,81	20613,38
485,02	20629,11
485,23	20893,46
485,44	21085,07
485,65	21330,99
485,86	21262,26
486,07	21758,36
486,28	21713,38
486,49	21994,04
486,70	22199,08
486,91	22467,86
487,12	22443,85
487,33	22290,50
487,54	22840,67
487,75	22938,89
487,96	23116,90
488,17	23021,63
488,38	23489,87
488,59	23464,97
488,80	23645,03
489,01	23596,53
489,22	24113,93
489,43	24070,35
489,64	23979,17
489,85	24567,60
490,06	24230,91
490,26	24593,81
490,47	24607,25
490,68	25080,82
490,89	25373,02
491,10	24961,54
491,31	25467,88
491,52	25636,80
491,73	25644,91
491,94	25599,28
492,15	25962,43
492,36	26189,18
492,57	26259,55
492,78	26209,33
492,99	26445,50
493,20	26638,75
493,41	26659,80
493,62	26715,34
493,83	26844,77
494,04	27094,79
494,25	27410,75
494,46	27366,76
494,67	27207,18
494,88	27552,47
495,08	27817,81
495,29	27826,57
495,50	28324,55
495,71	28110,83
495,92	28376,57
496,13	28369,61
496,34	28193,65
496,55	28414,17
496,76	29094,35
496,97	28417,61
497,18	29022,83
497,39	28944,35
497,60	29422,02
497,81	28927,39
498,02	29445,12
498,22	29057,40
498,43	29708,24
498,64	29729,30
498,85	29697,59
499,06	29908,86
499,27	30397,26
499,48	29671,63
499,69	29974,56
499,90	30145,85
500,11	30462,39
500,32	30774,01
500,52	30362,86
500,73	31015,75
500,94	31015,83
501,15	31019,44
501,36	31151,32
501,57	30942,02
501,78	31275,60
501,99	31612,04
502,20	31614,82
502,41	31619,41
502,61	31541,09
502,82	31946,59
503,03	31741,39
503,24	32105,68
503,45	32064,39
503,66	32396,82
503,87	32413,94
504,08	32590,64
504,28	32422,62
504,49	32700,41
504,70	32834,92
504,91	32930,11
505,12	32681,24
505,33	33132,45
505,54	33172,18
505,75	33123,60
505,95	33488,47
506,16	33290,22
506,37	33269,25
506,58	33847,84
506,79	33290,39
507,00	33987,19
507,21	33519,51
507,41	33617,33
507,62	33770,60
507,83	34403,42
508,04	33873,57
508,25	34309,95
508,46	34111,38
508,67	34628,20
508,87	34287,99
509,08	34780,98
509,29	34707,01
509,50	34775,25
509,71	34946,54
509,92	35080,07
510,12	34912,05
510,33	35049,76
510,54	35128,89
510,75	35185,33
510,96	35681,02
511,17	35848,38
511,37	35850,92
511,58	35969,21
511,79	35752,95
512,00	35768,92
512,21	36256,09
512,42	36054,41
512,62	36258,88
512,83	36524,95
513,04	36318,43
513,25	36695,83
513,46	36016,40
513,66	37063,16
513,87	36757,93
514,08	37177,84
514,29	37006,88
514,50	36944,70
514,71	37315,79
514,91	37106,24
515,12	37051,36
515,33	37395,75
515,54	37266,15
515,75	37725,80
515,95	37538,04
516,16	37474,39
516,37	37921,09
516,58	38073,13
516,78	37910,20
516,99	38126,46
517,20	38143,25
517,41	38307,99
517,62	38325,93
517,82	38233,12
518,03	38819,98
518,24	39243,42
518,45	38536,71
518,66	38969,24
518,86	38665,40
519,07	39229,58
519,28	38534,25
519,49	39385,96
519,69	39458,95
519,90	39519,57
520,11	39601,33
520,32	39549,80
520,52	39809,65
520,73	39395,71
520,94	39959,97
521,15	39812,68
521,36	39589,53
521,56	40433,70
521,77	39828,73
521,98	40448,20
522,19	40107,50
522,39	40562,15
522,60	40344,00
522,81	40389,55
523,02	40178,36
523,22	40626,13
523,43	40850,42
523,64	40627,11
523,84	40736,88
524,05	41106,50
524,26	41222,66
524,47	40848,29
524,67	41177,85
524,88	41256,82
525,09	41798,96
525,30	41338,49
525,50	41279,92
525,71	41424,26
525,92	41451,87
526,13	41936,91
526,33	41675,84
526,54	41407,63
526,75	41851,31
526,95	42181,68
527,16	41536,57
527,37	42032,76
527,58	42176,61
527,78	42247,79
527,99	42713,26
528,20	42967,20
528,40	42547,29
528,61	42372,80
528,82	42802,38
529,03	42872,18
529,23	42703,34
529,44	43055,43
529,65	43059,69
529,85	43186,01
530,06	43083,86
530,27	43167,09
530,47	42723,09
530,68	43740,03
530,89	42908,30
531,09	43619,28
531,30	43473,22
531,51	43061,16
531,72	43825,88
531,92	43756,16
532,13	44113,57
532,34	43894,69
532,54	43869,05
532,75	44064,34
532,96	43937,12
533,16	44161,09
533,37	44410,78
533,58	44090,96
533,78	44542,09
533,99	44591,41
534,20	44117,92
534,40	44492,20
534,61	44754,26
534,82	44858,63
535,02	44843,88
535,23	44784,65
535,44	45054,41
535,64	44762,86
535,85	45158,94
536,06	45006,49
536,26	45103,81
536,47	44992,73
536,68	45774,64
536,88	44985,03
537,09	45711,81
537,29	45034,91
537,50	45855,33
537,71	45300,66
537,91	45703,37
538,12	45845,50
538,33	45517,74
538,53	45875,89
538,74	46001,39
538,95	45971,41
539,15	45898,09
539,36	46127,63
539,56	46393,29
539,77	46055,95
539,98	46289,83
540,18	46391,49
540,39	45996,80
540,60	46465,87
540,80	46606,69
541,01	46347,09
541,21	46582,85
541,42	46707,45
541,63	46719,74
541,83	46919,29
542,04	46831,47
542,25	46742,10
542,45	47180,94
542,66	47007,76
542,86	47303,98
543,07	46349,79
543,28	47245,57
543,48	47079,36
543,69	47342,07
543,89	47076,33
544,10	47834,49
544,31	47483,79
544,51	47383,44
544,72	47648,70
544,92	47376,40
545,13	47955,65
545,33	47785,42
545,54	47575,46
545,75	47963,76
545,95	47759,45
546,16	47800,33
546,36	48297,25
546,57	47297,10
546,78	46227,49
546,98	47136,21
547,19	46093,88
547,39	47505,75
547,60	48038,63
547,80	48667,68
548,01	48638,44
548,22	48263,66
548,42	48364,50
548,63	48528,18
548,83	48451,17
549,04	48646,38
549,24	48272,10
549,45	48663,92
549,65	49140,85
549,86	48228,27
550,07	48715,11
550,27	49068,27
550,48	49178,04
550,68	48930,32
550,89	48755,99
551,09	49176,97
551,30	48837,34
551,50	49347,45
551,71	49012,48
551,91	49028,70
552,12	49169,44
552,33	49528,16
552,53	49063,52
552,74	49643,99
552,94	49842,73
553,15	49392,09
553,35	49863,86
553,56	49294,20
553,76	49781,70
553,97	49362,52
554,17	49629,98
554,38	50229,71
554,58	49545,03
554,79	50195,06
554,99	49570,18
555,20	49614,17
555,40	50281,24
555,61	49981,33
555,81	49471,47
556,02	50613,99
556,22	50337,60
556,43	50196,21
556,63	50206,28
556,84	49958,72
557,04	50696,32
557,25	49919,57
557,45	50341,20
557,66	50360,29
557,86	50068,25
558,07	50763,90
558,27	50294,02
558,48	50429,18
558,68	50297,87
558,89	50753,50
559,09	50703,61
559,30	50411,00
559,50	50802,16
559,71	50486,69
559,91	51183,16
560,12	50880,64
560,32	50756,37
560,53	50975,74
560,73	50508,73
560,94	51255,99
561,14	50521,01
561,35	51387,22
561,55	50855,08
561,76	51242,14
561,96	50635,21
562,17	51052,75
562,37	51261,40
562,57	51086,50
562,78	50967,80
562,98	51271,14
563,19	51468,32
563,39	51498,47
563,60	51534,92
563,80	51192,42
564,01	51761,18
564,21	51344,38
564,42	51365,84
564,62	51440,06
564,82	51803,12
565,03	51446,29
565,23	51461,52
565,44	51890,53
565,64	51442,76
565,85	51834,42
566,05	51482,49
566,25	52008,49
566,46	51449,89
566,66	51924,12
566,87	51894,30
567,07	51912,98
567,28	52028,81
567,48	52232,30
567,68	51586,94
567,89	52639,51
568,09	52114,74
568,30	51969,91
568,50	52487,55
568,71	52122,28
568,91	52427,43
569,11	52042,65
569,32	52051,50
569,52	52302,66
569,73	51702,20
569,93	52417,10
570,13	52136,94
570,34	52109,83
570,54	52386,96
570,75	52025,78
570,95	52124,90
571,15	51997,84
571,36	52696,86
571,56	52151,85
571,77	52040,36
571,97	51877,51
572,17	52687,85
572,38	52513,93
572,58	52715,45
572,79	52457,41
572,99	52562,43
573,19	52559,89
573,40	52519,01
573,60	52605,35
573,81	52425,38
574,01	52691,37
574,21	52569,06
574,42	52735,11
574,62	52467,57
574,82	52981,61
575,03	52563,00
575,23	53033,46
575,43	52619,20
575,64	52691,61
575,84	52931,64
576,05	52441,35
576,25	52836,36
576,45	52739,46
576,66	53375,06
576,86	52894,04
577,06	53347,37
577,27	53147,66
577,47	53106,94
577,67	53041,16
577,88	52330,52
578,08	53314,36
578,28	53167,89
578,49	53157,73
578,69	53175,51
578,89	52950,72
579,10	53075,65
579,30	53705,44
579,50	53230,07
579,71	52825,63
579,91	53455,75
580,11	53052,88
580,32	53088,84
580,52	52959,41
580,72	53538,57
580,93	52961,29
581,13	52949,17
581,33	53556,68
581,54	53082,45
581,74	53316,00
581,94	53472,55
582,15	53586,66
582,35	53449,12
582,55	53556,35
582,76	53190,75
582,96	53689,71
583,16	53386,20
583,37	53469,60
583,57	53265,86
583,77	53648,02
583,97	52849,06
584,18	53877,63
584,38	53584,86
584,58	53264,80
584,79	53686,85
584,99	53589,69
585,19	53577,40
585,40	53467,96
585,60	53882,80
585,80	53345,41
586,00	53698,31
586,21	53535,38
586,41	53699,95
586,61	53913,92
586,82	53737,31
587,02	53667,35
587,22	54111,51
587,42	53399,47
587,63	54077,43
587,83	53462,47
588,03	53779,00
588,23	53432,98
588,44	53769,91
588,64	53511,79
588,84	53794,16
589,05	53964,88
589,25	54078,25
589,45	53998,30
589,65	53657,60
589,86	54000,18
590,06	54088,00
590,26	53813,74
590,46	54179,91
590,67	53631,47
590,87	54112,41
591,07	54552,32
591,27	53792,52
591,48	54301,65
591,68	53690,04
591,88	54699,12
592,08	53745,09
592,29	54266,99
592,49	54093,82
592,69	54378,90
592,89	54068,26
593,10	54074,89
593,30	53994,53
593,50	54514,96
593,70	53547,42
593,90	54472,36
594,11	54248,15
594,31	54206,70
594,51	54581,56
594,71	54647,34
594,92	54541,67
595,12	54305,50
595,32	54362,10
595,52	54657,34
595,72	53751,48
595,93	54737,78
596,13	54408,63
596,33	53964,71
596,53	54661,27
596,73	54461,14
596,94	54339,25
597,14	54661,02
597,34	54380,45
597,54	54794,39
597,74	54234,80
597,95	54461,63
598,15	54435,75
598,35	54666,10
598,55	54838,79
598,75	54401,75
598,96	55130,91
599,16	54566,33
599,36	54741,47
599,56	54553,46
599,76	54442,71
599,97	54972,07
600,17	54830,60
600,37	55109,04
600,57	54065,23
600,77	55218,07
600,97	54723,20
601,18	55341,77
601,38	54839,36
601,58	55140,90
601,78	54996,40
601,98	54560,67
602,18	55035,88
602,39	55414,02
602,59	54932,42
602,79	54945,28
602,99	54919,15
603,19	55022,45
603,39	54841,82
603,60	54980,26
603,80	54858,45
604,00	54810,28
604,20	54968,55
604,40	55062,75
604,60	54693,46
604,80	54756,79
605,01	54992,55
605,21	54950,61
605,41	54764,65
605,61	54513,90
605,81	54970,68
606,01	55322,44
606,21	54684,86
606,42	55166,54
606,62	54800,69
606,82	55267,96
607,02	54804,95
607,22	55145,90
607,42	55237,24
607,62	54585,99
607,82	55017,37
608,03	55005,49
608,23	55074,47
608,43	54741,30
608,63	55323,91
608,83	55235,03
609,03	55149,50
609,23	55220,69
609,43	55375,19
609,63	55061,11
609,84	54889,00
610,04	55424,67
610,24	55352,42
610,44	55419,59
610,64	55028,18
610,84	55342,75
611,04	55716,63
611,24	55285,16
611,44	54734,67
611,64	55375,60
611,85	55354,88
612,05	55379,45
612,25	55590,15
612,45	55138,28
612,65	55489,55
612,85	55421,80
613,05	55226,75
613,25	55689,68
613,45	55406,81
613,65	55369,21
613,85	54916,77
614,05	55462,84
614,25	55577,53
614,46	55222,41
614,66	55104,94
614,86	54802,74
615,06	55197,51
615,26	55469,97
615,46	54679,62
615,66	55641,43
615,86	55405,50
616,06	55141,72
616,26	55046,04
616,46	55621,60
616,66	55155,81
616,86	55578,10
617,06	55176,54
617,26	55468,25
617,46	55167,53
617,66	54886,46
617,86	54814,70
618,07	55251,00
618,27	55247,56
618,47	55375,44
618,67	55373,39
618,87	55381,74
619,07	55126,16
619,27	54861,48
619,47	54938,97
619,67	55392,97
619,87	54837,97
620,07	55263,29
620,27	55218,73
620,47	54942,50
620,67	54970,43
620,87	55201,93
621,07	55252,39
621,27	55357,33
621,47	54868,61
621,67	55359,38
621,87	55004,02
622,07	55624,55
622,27	55352,66
622,47	55124,85
622,67	55338,41
622,87	54860,90
623,07	55247,64
623,27	55662,97
623,47	54639,89
623,67	55103,06
623,87	55326,04
624,07	55151,72
624,27	54750,97
624,47	55145,16
624,67	54929,06
624,87	55155,24
625,07	54895,47
625,27	55336,85
625,47	54829,78
625,67	54756,70
625,87	54995,91
626,07	54887,20
626,27	55273,28
626,47	55052,02
626,67	54896,54
626,87	54544,04
627,07	55149,42
627,27	55002,79
627,47	55297,53
627,67	54917,67
627,87	54910,30
628,07	55147,62
628,27	54957,57
628,47	54665,86
628,67	55224,87
628,86	55138,53
629,06	54744,17
629,26	54518,81
629,46	55121,16
629,66	55205,21
629,86	54611,38
630,06	55083,15
630,26	54902,77
630,46	55406,16
630,66	54903,75
630,86	54990,17
631,06	55020,24
631,26	54696,49
631,46	55169,90
631,66	55016,55
631,86	54690,10
632,06	55267,39
632,26	54918,58
632,45	54923,41
632,65	54815,36
632,85	54953,06
633,05	54795,53
633,25	54997,22
633,45	54654,22
633,65	54809,13
633,85	55456,54
634,05	54461,06
634,25	54758,92
634,45	54996,15
634,65	55268,29
634,84	54791,36
635,04	54906,37
635,24	54513,90
635,44	54912,19
635,64	54427,64
635,84	54824,29
636,04	54792,09
636,24	54677,82
636,44	54756,95
636,64	54212,35
636,84	55120,67
637,03	54362,76
637,23	54787,67
637,43	54831,58
637,63	54470,89
637,83	54980,42
638,03	54791,85
638,23	54543,72
638,43	54825,27
638,62	55184,16
638,82	54172,71
639,02	54805,28
639,22	54503,33
639,42	54693,05
639,62	54250,77
639,82	54396,10
640,02	54479,08
640,21	54754,74
640,41	53908,44
640,61	54627,52
640,81	54337,69
641,01	54387,09
641,21	54248,56
641,41	54949,62
641,61	54290,75
641,80	54345,80
642,00	54666,68
642,20	54594,67
642,40	53928,34
642,60	54354,81
642,80	54585,08
642,99	54031,72
643,19	54590,57
643,39	53902,87
643,59	54497,51
643,79	54186,47
643,99	54517,99
644,19	54368,90
644,38	53839,30
644,58	54371,11
644,78	53986,83
644,98	53922,85
645,18	54386,10
645,38	54579,92
645,57	53903,52
645,77	54176,97
645,97	53925,15
646,17	54332,37
646,37	54194,00
646,56	53973,81
646,76	54109,79
646,96	54017,96
647,16	53686,19
647,36	54133,06
647,55	53793,42
647,75	54123,88
647,95	53698,56
648,15	54059,08
648,35	54030,90
648,55	54035,08
648,74	53861,74
648,94	54016,81
649,14	54369,64
649,34	53963,98
649,54	53862,81
649,73	53954,97
649,93	53674,48
650,13	53960,45
650,33	53700,77
650,52	54148,38
650,72	54300,99
650,92	53928,10
651,12	53637,37
651,32	54055,15
651,51	53972,25
651,71	54081,78
651,91	53839,21
652,11	53643,26
652,30	53459,03
652,50	53905,73
652,70	53973,23
652,90	53405,78
653,10	53686,35
653,29	53458,37
653,49	53823,57
653,69	53368,75
653,89	53516,37
654,08	53452,64
654,28	53799,81
654,48	53405,13
654,68	53548,73
654,87	53515,80
655,07	53082,61
655,27	53536,61
655,47	53183,95
655,66	53154,87
655,86	53200,58
656,06	53838,07
656,26	53020,93
656,45	53497,04
656,65	53389,89
656,85	53331,56
657,04	53055,83
657,24	53084,50
657,44	52956,54
657,64	53664,07
657,83	52698,33
658,03	53354,75
658,23	53292,41
658,43	53098,42
658,62	53082,53
658,82	52889,53
659,02	52749,86
659,21	52882,08
659,41	52579,63
659,61	53174,28
659,81	52800,32
660,00	52629,68
660,20	52996,19
660,40	52539,98
660,59	52805,56
660,79	52305,37
660,99	52822,27
661,19	52887,89
661,38	52732,08
661,58	52084,43
661,78	52541,05
661,97	52160,86
662,17	52966,70
662,37	52270,80
662,56	52279,32
662,76	52196,50
662,96	52282,27
663,15	52482,56
663,35	52376,15
663,55	52075,67
663,74	52005,55
663,94	52460,19
664,14	52018,24
664,33	52375,49
664,53	52100,82
664,73	52597,90
664,93	51817,13
665,12	52410,22
665,32	52061,33
665,52	52128,26
665,71	52023,24
665,91	52081,40
666,10	51970,40
666,30	52468,71
666,50	51782,97
666,69	51773,71
666,89	52082,30
667,09	52406,37
667,28	51781,33
667,48	51611,68
667,68	51734,56
667,87	51713,18
668,07	51519,93
668,27	52059,86
668,46	52129,41
668,66	51891,27
668,86	52287,84
669,05	51836,55
669,25	52083,12
669,44	51702,45
669,64	51605,04
669,84	51730,87
670,03	52060,51
670,23	51689,50
670,43	51788,46
670,62	51631,42
670,82	51843,02
671,01	51909,54
671,21	51543,03
671,41	51575,88
671,60	51757,00
671,80	51942,80
672,00	51547,13
672,19	51795,59
672,39	51572,60
672,58	51397,05
672,78	51418,84
672,98	51871,20
673,17	51676,07
673,37	50932,41
673,56	51367,15
673,76	51211,83
673,96	51659,93
674,15	51415,48
674,35	51496,34
674,54	51295,47
674,74	51405,08
674,94	51311,61
675,13	51447,76
675,33	50878,42
675,52	51690,65
675,72	51457,51
675,91	51303,09
676,11	51594,56
676,31	50899,48
676,50	50899,97
676,70	51022,19
676,89	51305,71
677,09	51494,37
677,28	51305,80
677,48	50783,07
677,68	51453,00
677,87	50987,79
678,07	51033,33
678,26	51041,03
678,46	51222,16
678,65	50876,21
678,85	51153,43
679,04	50558,86
679,24	50880,47
679,44	50659,95
679,63	51007,94
679,83	50907,67
680,02	50885,06
680,22	50522,24
680,41	50862,61
680,61	50494,55
680,80	50456,79
681,00	50698,61
681,19	50816,41
681,39	50588,76
681,59	50578,93
681,78	50434,59
681,98	50757,43
682,17	50237,98
682,37	50504,47
682,56	50022,46
682,76	50595,40
682,95	50178,84
683,15	50279,76
683,34	50146,15
683,54	50235,20
683,73	50254,70
683,93	49677,00
684,12	50036,79
684,32	50246,50
684,51	49855,34
684,71	50076,11
684,90	49972,49
685,10	50024,75
685,29	50020,90
685,49	50025,57
685,68	50144,68
685,88	49928,58
686,07	49695,44
686,27	50154,35
686,46	49890,98
686,66	49604,34
686,85	50070,21
687,05	49525,05
687,24	49457,87
687,44	49852,88
687,63	49739,43
687,83	49202,86
688,02	49621,63
688,22	49753,76
688,41	49427,81
688,61	49412,08
688,80	49520,29
689,00	49086,37
689,19	48943,42
689,39	49436,16
689,58	49354,57
689,77	49336,06
689,97	49428,79
690,16	49160,67
690,36	48976,44
690,55	48703,81
690,75	49570,26
690,94	48928,43
691,14	49419,86
691,33	48745,01
691,53	49211,71
691,72	48899,68
691,91	49081,70
692,11	48962,26
692,30	49249,47
692,50	49203,43
692,69	48751,98
692,89	48893,04
693,08	48772,29
693,28	48704,96
693,47	48959,97
693,66	48844,79
693,86	48790,15
694,05	48590,35
694,25	48671,37
694,44	48768,28
694,64	48598,79
694,83	48650,73
695,02	48617,14
695,22	48785,56
695,41	48553,00
695,61	48360,57
695,80	48363,19
695,99	48248,34
696,19	48362,21
696,38	48315,43
696,58	47980,96
696,77	48614,52
696,96	48332,47
697,16	48056,08
697,35	48091,96
697,55	47890,68
697,74	47734,47
697,93	48172,40
698,13	47786,32
698,32	48081,55
698,52	47750,19
698,71	47212,48
698,90	48139,14
699,10	47568,25
699,29	47585,21
699,49	48223,77
699,68	47660,25
699,87	47683,76
700,07	48057,63
700,26	47729,71
700,45	47614,13
700,65	47359,77
700,84	47949,17
701,04	47343,63
701,23	47721,44
701,42	47565,55
701,62	47486,42
701,81	47552,44
702,00	47479,12
702,20	47049,87
702,39	47312,01
702,58	47476,42
702,78	47052,66
702,97	47145,14
703,17	47240,00
703,36	47180,37
703,55	46891,11
703,75	46986,38
703,94	47139,57
704,13	46709,83
704,33	46621,27
704,52	47243,20
704,71	47020,05
704,91	46984,91
705,10	46710,81
705,29	46688,28
705,49	46857,12
705,68	46761,43
705,87	46785,35
706,07	46225,52
706,26	46702,78
706,45	46048,41
706,65	46056,11
706,84	46545,99
707,03	46864,90
707,23	46054,15
707,42	46005,73
707,61	46461,94
707,80	46174,40
708,00	46342,91
708,19	46192,51
708,38	46640,36
708,58	45931,60
708,77	46565,98
708,96	45944,38
709,16	45779,23
709,35	46596,78
709,54	46019,17
709,74	45854,35
709,93	45377,09
710,12	46253,87
710,31	46424,99
710,51	45785,04
710,70	45835,18
710,89	45843,86
711,09	45279,11
711,28	45229,55
711,47	45537,65
711,66	45427,96
711,86	45281,49
712,05	45364,97
712,24	45764,57
712,43	45397,32
712,63	45010,58
712,82	45645,21
713,01	45431,73
713,21	44991,42
713,40	45066,78
713,59	45456,22
713,78	44723,95
713,98	45435,99
714,17	44986,25
714,36	45123,88
714,55	44600,34
714,75	44717,32
714,94	44814,72
715,13	45082,67
715,32	44459,60
715,52	44874,35
715,71	44479,75
715,90	44773,59
716,09	44517,43
716,29	44844,62
716,48	44728,54
716,67	44039,85
716,86	44417,82
717,06	44376,78
717,25	44390,30
717,44	44436,83
717,63	44456,08
717,82	43987,17
718,02	44136,76
718,21	44263,24
718,40	44386,45
718,59	44142,08
718,79	43778,44
718,98	43702,92
719,17	44103,25
719,36	44177,80
719,55	43824,73
719,75	43754,93
719,94	43602,89
720,13	44079,58
720,32	43806,62
720,51	43552,59
720,71	43693,17
720,90	43155,45
721,09	43462,65
721,28	43279,64
721,47	43697,10
721,67	43636,64
721,86	43524,58
722,05	43510,24
722,24	43047,57
722,43	43598,63
722,63	43122,03
722,82	43268,42
723,01	43333,54
723,20	43017,01
723,39	42991,78
723,58	43534,16
723,78	42764,95
723,97	43426,93
724,16	42786,49
724,35	42971,71
724,54	42580,14
724,73	42936,57
724,93	42600,45
725,12	43041,18
725,31	42217,32
725,50	42678,52
725,69	42789,60
725,88	42453,41
726,08	42130,65
726,27	42698,10
726,46	41712,62
726,65	42667,54
726,84	41978,20
727,03	42226,66
727,23	42480,44
727,42	41993,52
727,61	41978,36
727,80	41757,18
727,99	41869,57
728,18	41950,59
728,37	41734,41
728,56	41528,87
728,76	41512,90
728,95	41730,39
729,14	41669,77
729,33	41535,26
729,52	41589,33
729,71	41633,98
729,90	41658,55
730,09	41279,19
730,29	41433,68
730,48	40929,15
730,67	41385,93
730,86	40984,11
731,05	41317,36
731,24	40955,20
731,43	41108,79
731,62	40773,50
731,81	40717,31
732,01	41108,71
732,20	40626,54
732,39	41004,18
732,58	40695,76
732,77	40204,00
732,96	40611,47
733,15	40786,61
733,34	40434,44
733,53	40647,84
733,72	40500,96
733,92	40578,53
734,11	40220,88
734,30	40557,65
734,49	40671,10
734,68	40432,80
734,87	40236,28
735,06	40400,36
735,25	40297,88
735,44	40103,98
735,63	40137,40
735,82	40337,53
736,01	39918,84
736,20	40017,72
736,40	40213,42
736,59	40165,58
736,78	40290,34
736,97	39874,77
737,16	39853,31
737,35	40031,15
737,54	39899,76
737,73	39789,90
737,92	39764,59
738,11	40159,93
738,30	39769,26
738,49	39906,88
738,68	39709,46
738,87	40032,30
739,06	39570,77
739,25	39840,12
739,44	39516,70
739,63	39422,99
739,82	38964,65
740,01	39586,91
740,20	39063,28
740,39	39319,77
740,59	39185,59
740,78	39388,34
740,97	39079,67
741,16	39032,81
741,35	39226,47
741,54	39135,21
741,73	39141,02
741,92	39069,51
742,11	38838,66
742,30	39111,78
742,49	38346,17
742,68	38866,27
742,87	38635,75
743,06	38332,49
743,25	38679,00
743,44	38550,06
743,63	38711,85
743,82	38430,87
744,01	38339,04
744,20	38186,67
744,39	38469,13
744,58	38494,52
744,77	38079,85
744,96	37985,56
745,15	38152,92
745,34	38154,89
745,53	38120,56
745,72	37955,09
745,91	37894,55
746,10	37665,09
746,29	37944,60
746,48	38087,55
746,67	37855,80
746,86	37968,77
747,04	37817,55
747,23	37635,69
747,42	37889,72
747,61	37535,34
747,80	38018,74
747,99	37292,45
748,18	37682,95
748,37	37598,17
748,56	37025,72
748,75	37439,16
748,94	37251,08
749,13	37515,92
749,32	37011,22
749,51	37289,58
749,70	37373,63
749,89	37345,86
750,08	37179,32
750,27	36757,43
750,46	37047,59
750,65	37403,28
750,84	36736,30
751,02	37135,49
751,21	36777,59
751,40	37020,15
751,59	36895,80
751,78	36991,48
751,97	36806,59
752,16	36625,30
752,35	36857,54
752,54	36474,00
752,73	36708,94
752,92	36489,72
753,11	36467,52
753,30	36699,44
753,49	36767,59
753,67	36615,88
753,86	36172,13
754,05	36701,65
754,24	36219,56
754,43	36307,21
754,62	36326,13
754,81	36164,51
755,00	36132,07
755,19	36311,06
755,38	35703,14
755,56	36295,99
755,75	36378,15
755,94	36089,06
756,13	35931,78
756,32	36169,59
756,51	35700,60
756,70	35928,91
756,89	35726,32
757,08	35736,40
757,26	35751,55
757,45	35759,83
757,64	35300,10
757,83	35986,66
758,02	35489,41
758,21	35491,87
758,40	35547,17
758,59	35695,03
758,77	35252,10
758,96	35496,71
759,15	35452,14
759,34	35184,59
759,53	35209,50
759,72	35297,07
759,91	34862,57
760,09	35273,64
760,28	35281,75
760,47	34817,43
760,66	35233,75
760,85	34877,81
761,04	35043,78
761,23	35248,90
761,41	34911,72
761,60	35248,08
761,79	34844,63
761,98	34812,36
762,17	34950,06
762,36	34567,83
762,54	34724,29
762,73	34677,03
762,92	34240,48
763,11	34769,43
763,30	34567,83
763,49	34692,92
763,67	34410,79
763,86	34516,06
764,05	34705,78
764,24	34568,16
764,43	34750,34
764,61	34331,90
764,80	34297,66
764,99	34930,56
765,18	34259,49
765,37	34535,06
765,55	34550,05
765,74	34356,23
765,93	34092,86
766,12	34340,75
766,31	34176,01
766,49	34363,69
766,68	34299,95
766,87	34241,14
767,06	33903,39
767,25	34208,37
767,43	34062,39
767,62	34114,00
767,81	33908,30
768,00	33921,24
768,19	33525,66
768,37	33884,30
768,56	33710,55
768,75	33901,09
768,94	33884,71
769,12	33686,30
769,31	33481,01
769,50	33663,69
769,69	33619,05
769,88	33330,86
770,06	33810,65
770,25	33513,21
770,44	33289,81
770,63	33724,47
770,81	33437,92
771,00	33386,89
771,19	33398,85
771,38	33485,11
771,56	33537,04
771,75	32980,57
771,94	33205,36
772,13	33414,74
772,31	32842,70
772,50	33447,34
772,69	32988,68
772,88	33602,99
773,06	32907,17
773,25	33217,73
773,44	33155,30
773,62	33134,17
773,81	33055,61
774,00	33010,39
774,19	32896,93
774,37	32941,50
774,56	33309,23
774,75	32793,55
774,94	32994,01
775,12	32815,59
775,31	32954,03
775,50	32994,58
775,68	32836,07
775,87	32852,20
776,06	32511,34
776,25	32963,20
776,43	32569,99
776,62	32905,29
776,81	32312,44
776,99	32682,55
777,18	32516,99
777,37	32326,45
777,55	32369,78
777,74	32589,82
777,93	32311,95
778,12	32603,42
778,30	32182,76
778,49	32356,51
778,68	32362,49
778,86	32460,96
779,05	32396,98
779,24	32592,85
779,42	32232,82
779,61	32135,99
779,80	32211,44
779,98	32483,49
780,17	32325,55
780,36	32152,29
780,54	32399,60
780,73	31980,51
780,92	32301,71
781,10	32189,15
781,29	32014,99
781,48	32037,69
781,66	31931,60
781,85	32263,62
782,04	31899,73
782,22	32064,64
782,41	31707,39
782,60	32025,64
782,78	31805,86
782,97	32105,27
783,16	31496,78
783,34	31731,39
783,53	31743,60
783,71	31807,08
783,90	31600,65
784,09	31713,86
784,27	31617,36
784,46	31556,09
784,65	31511,69
784,83	31468,60
785,02	31296,24
785,20	31843,54
785,39	31031,07
785,58	31760,31
785,76	31427,47
785,95	31492,11
786,14	31565,92
786,32	31757,77
786,51	31413,71
786,69	31854,68
786,88	31491,94
787,07	31513,24
787,25	31361,12
787,44	31614,66
787,62	31441,32
787,81	31736,47
788,00	31451,39
788,18	31524,06
788,37	31269,53
788,55	31962,07
788,74	31431,41
788,93	31606,88
789,11	31730,41
789,30	31613,51
789,48	31251,27
789,67	31694,28
789,86	31361,20
790,04	31766,94
790,23	31586,81
790,41	31677,49
790,60	31724,92
790,78	31892,69
790,97	31343,01
791,16	31851,24
791,34	32111,90
791,53	31641,28
791,71	31926,52
791,90	31752,36
792,08	31770,63
792,27	31997,79
792,46	31719,27
792,64	31913,42
792,83	31561,74
793,01	31944,22
793,20	31764,98
793,38	31894,98
793,57	31793,08
793,75	32038,18
793,94	31947,00
794,12	32390,43
794,31	31794,96
794,50	32174,00
794,68	32237,24
794,87	32163,92
795,05	32327,51
795,24	32302,37
795,42	32149,18
795,61	32746,45
795,79	32606,37
795,98	32399,93
796,16	32553,94
796,35	32758,82
796,53	32451,13
796,72	32950,92
796,90	32733,67
797,09	33072,40
797,27	32685,91
797,46	32721,30
797,64	32788,88
797,83	32861,95
798,01	32683,21
798,20	32928,55
798,38	32558,69
798,57	32918,15
798,75	32594,16
798,94	32311,38
799,12	33210,19
799,31	32834,26
799,49	32778,15
799,68	32799,78
799,86	32591,29
800,05	32866,54
800,23	32657,89
800,42	32661,58
800,60	32790,85
800,79	32631,51
800,97	32628,65
801,16	33187,74
801,34	32458,26
801,53	32714,99
801,71	32731,54
801,90	32601,94
802,08	32772,33
802,27	32831,31
802,45	32387,56
802,64	32751,44
802,82	32853,68
803,00	32541,16
803,19	32667,31
803,37	33137,69
803,56	32556,64
803,74	32829,27
803,93	32867,28
804,11	32893,25
804,30	32548,94
804,48	33033,08
804,67	32920,20
804,85	32926,26
805,03	32929,37
805,22	32759,55
805,40	32443,68
805,59	32860,40
805,77	32701,06
805,96	32673,78
806,14	32587,61
806,32	32771,92
806,51	32900,45
806,69	32715,48
806,88	32525,92
807,06	32605,71
807,25	32395,34
807,43	32668,30
807,61	32452,36
807,80	32516,75
807,98	32530,02
808,17	32525,43
808,35	32202,59
808,53	32800,27
808,72	32461,21
808,90	32723,10
809,09	32578,43
809,27	32904,39
809,45	32220,86
809,64	32806,00
809,82	32292,04
810,01	32477,10
810,19	32477,67
810,37	32371,59
810,56	32220,36
810,74	32589,49
810,93	32048,99
811,11	32352,83
811,29	32132,47
811,48	32342,34
811,66	32137,87
811,84	32183,58
812,03	31948,97
812,21	32108,87
812,40	32168,26
812,58	32549,68
812,76	32021,88
812,95	32459,49
813,13	31837,89
813,31	32212,75
813,50	32187,27
813,68	32226,02
813,86	32198,08
814,05	32449,66
814,23	31860,00
814,42	32270,17
814,60	31782,02
814,78	32117,80
814,97	31885,56
815,15	31901,21
815,33	31797,17
815,52	31608,27
815,70	31567,55
815,88	31830,51
816,07	31410,60
816,25	31756,95
816,43	31417,07
816,62	31223,41
816,80	31525,28
816,98	31537,16
817,17	31387,09
817,35	31679,29
817,53	31501,12
817,72	31878,03
817,90	31176,39
818,08	31575,17
818,26	31679,95
818,45	31455,82
818,63	31587,87
818,81	31716,24
819,00	31048,60
819,18	31675,93
819,36	31394,71
819,55	31675,44
819,73	31102,17
819,91	31654,63
820,09	31124,78
820,28	31581,97
820,46	31014,68
820,64	31650,21
820,83	31096,36
821,01	31400,93
821,19	31031,31
821,38	31315,90
821,56	31072,27
821,74	31471,63
821,92	30980,11
822,11	31329,66
822,29	30796,53
822,47	30896,89
822,65	30901,64
822,84	31200,80
823,02	30594,28
823,20	31267,49
823,39	30662,11
823,57	30942,51
823,75	30852,57
823,93	30812,51
824,12	30822,26
824,30	30795,96
824,48	30585,84
824,66	31032,79
824,85	30098,59
825,03	30784,49
825,21	30852,65
825,39	30610,91
825,58	30595,01
825,76	30529,23
825,94	30493,52
826,12	30604,35
826,31	30102,93
826,49	30379,40
826,67	30426,34
826,85	30353,27
827,03	30324,36
827,22	30687,75
827,40	30257,35
827,58	30368,02
827,76	30390,30
827,95	30316,00
828,13	30249,81
828,31	30276,43
828,49	30288,88
828,67	30296,83
828,86	29924,84
829,04	30192,38
829,22	29932,70
829,40	30017,98
829,58	29779,35
829,77	30009,95
829,95	29966,62
830,13	29984,72
830,31	29864,14
830,49	30112,27
830,68	29941,22
830,86	30054,68
831,04	29754,36
831,22	30089,33
831,40	29818,67
831,59	30104,89
831,77	29597,49
831,95	30046,49
832,13	29483,95
832,31	29849,23
832,50	29585,04
832,68	29585,78
832,86	29496,65
833,04	29999,47
833,22	29273,75
833,40	29979,56
833,59	29427,18
833,77	29976,61
833,95	29018,82
834,13	30179,93
834,31	29557,92
834,49	29703,74
834,67	29392,86
834,86	29576,76
835,04	29195,60
835,22	29449,30
835,40	29145,63
835,58	29282,10
835,76	29026,60
835,95	29263,26
836,13	29019,55
836,31	28895,94
836,49	29117,12
836,67	29389,74
836,85	28966,31
837,03	29059,94
837,21	28980,97
837,40	28982,94
837,58	28460,38
837,76	28961,55
837,94	28827,54
838,12	29157,42
838,30	28648,54
838,48	28998,99
838,66	28655,83
838,85	28806,24
839,03	28729,81
839,21	28801,73
839,39	28647,07
839,57	28896,02
839,75	28573,26
839,93	28871,94
840,11	28669,35
840,29	28758,15
840,47	28665,01
840,66	28865,46
840,84	28552,04
841,02	28596,85
841,20	28489,05
841,38	28625,93
841,56	28473,56
841,74	28996,70
841,92	28323,49
842,10	28479,30
842,28	28569,08
842,46	28400,00
842,65	28203,89
842,83	28541,07
843,01	28375,18
843,19	28238,62
843,37	28211,59
843,55	28082,81
843,73	28077,90
843,91	28237,97
844,09	27743,01
844,27	28318,74
844,45	27810,76
844,63	27971,48
844,81	27789,95
844,99	27969,03
845,17	27679,94
845,35	28086,99
845,54	27708,94
845,72	27927,17
845,90	27783,73
846,08	27979,19
846,26	27553,04
846,44	28136,80
846,62	27516,84
846,80	27652,00
846,98	27477,27
847,16	27571,89
847,34	27464,90
847,52	27583,44
847,70	27148,53
847,88	27550,59
848,06	27166,06
848,24	27615,63
848,42	27373,72
848,60	27442,54
848,78	27436,47
848,96	27456,38
849,14	27161,39
849,32	27569,59
849,50	27165,65
849,68	27512,25
849,86	27237,82
850,04	27098,64
850,22	26835,19
850,40	26956,02
850,58	26949,47
850,76	27517,00
850,94	26421,34
851,12	26976,66
851,30	26540,36
851,48	27026,63
851,66	26601,15
851,84	26676,51
852,02	26544,05
852,20	26956,02
852,38	26520,95
852,56	26920,55
852,74	26689,21
852,92	26808,48
853,10	26568,22
853,28	27067,51
853,46	26384,47
853,64	26900,07
853,82	26447,14
854,00	26799,56
854,18	26321,56
854,36	26336,71
854,54	26397,25
854,72	26324,18
854,90	26100,71
855,07	26378,82
855,25	26163,37
855,43	26336,80
855,61	26019,20
855,79	26154,85
855,97	26104,64
856,15	26266,10
856,33	25860,85
856,51	26254,30
856,69	25693,90
856,87	26204,33
857,05	25699,96
857,23	26124,22
857,41	25562,91
857,59	25758,29
857,77	25540,55
857,94	25693,24
858,12	25727,89
858,30	25723,47
858,48	25434,38
858,66	25502,62
858,84	25571,02
859,02	25311,83
859,20	25170,60
859,38	25711,51
859,56	25306,67
859,74	25340,09
859,92	25191,33
860,09	25091,71
860,27	25205,17
860,45	25015,77
860,63	24978,42
860,81	25369,17
860,99	25093,11
861,17	24867,99
861,35	24278,26
861,53	24254,67
861,70	24103,53
861,88	25014,30
862,06	24701,86
862,24	24415,97
862,42	24168,32
862,60	24797,30
862,78	24590,62
862,96	24786,16
863,14	24484,29
863,31	24719,72
863,49	24307,83
863,67	24563,09
863,85	24429,81
864,03	24767,97
864,21	24537,04
864,39	24656,81
864,56	24325,20
864,74	24726,52
864,92	24378,69
865,10	24357,72
865,28	24292,60
865,46	24770,51
865,64	24008,58
865,81	24364,03
865,99	23773,39
866,17	24322,17
866,35	23832,54
866,53	24001,13
866,71	23740,22
866,88	24056,42
867,06	23623,32
867,24	23948,13
867,42	23669,03
867,60	23958,45
867,78	23606,77
867,95	24001,95
868,13	23542,79
868,31	23933,14
868,49	23667,06
868,67	23780,44
868,84	23480,78
869,02	23668,87
869,20	23092,98
869,38	23584,00
869,56	23287,86
869,73	23354,54
869,91	23220,20
870,09	23444,65
870,27	23005,08
870,45	23371,42
870,62	22908,74
870,80	23429,50
870,98	22996,23
871,16	23192,02
871,34	22945,20
871,51	23254,52
871,69	22885,56
871,87	23145,32
872,05	22895,64
872,23	23158,27
872,40	22675,60
872,58	23062,18
872,76	22590,08
872,94	22824,04
873,11	22738,19
873,29	22573,86
873,47	22600,15
873,65	22624,73
873,83	22435,50
874,00	22603,51
874,18	22493,91
874,36	22565,34
874,54	22440,00
874,71	22415,02
874,89	22053,67
875,07	22377,42
875,25	22074,97
875,42	22417,31
875,60	22165,98
875,78	22649,14
875,96	22163,04
876,13	22543,47
876,31	21950,78
876,49	22238,56
876,66	21902,78
876,84	22489,97
877,02	21880,42
877,20	22157,06
877,37	21983,47
877,55	22213,99
877,73	21827,66
877,91	21935,14
878,08	21989,37
878,26	21988,22
878,44	21753,03
878,61	22028,85
878,79	21613,28
878,97	21899,34
879,15	21706,09
879,32	21952,67
879,50	21683,32
879,68	22091,44
879,85	21615,41
880,03	21970,12
880,21	21565,19
880,38	21988,30
880,56	21493,43
880,74	22028,93
880,92	21533,65
881,09	21872,14
881,27	21569,62
881,45	21806,77
881,62	21451,65
881,80	21659,65
881,98	21463,86
882,15	21868,37
882,33	21491,79
882,51	21822,50
882,68	21375,96
882,86	21849,86
883,04	21345,90
883,21	21567,49
883,39	21702,98
883,57	21662,27
883,74	21529,48
883,92	21840,77
884,10	21755,65
884,27	21926,21
884,45	21593,05
884,63	21999,03
884,80	21638,51
884,98	21824,06
885,16	21471,64
885,33	21453,05
885,51	21520,96
885,69	21659,89
885,86	21359,99
886,04	21788,34
886,21	21258,16
886,39	21758,11
886,57	21136,59
886,74	21800,30
886,92	21374,24
887,10	21810,38
887,27	21551,27
887,45	21777,61
887,62	21489,91
887,80	21754,02
887,98	21776,46
888,15	21978,88
888,33	21574,29
888,51	22009,85
888,68	21571,99
888,86	21937,51
889,03	21671,44
889,21	21969,46
889,39	21897,54
889,56	22011,73
889,74	21710,76
889,91	22023,53
890,09	21717,15
890,27	21868,54
890,44	21602,47
890,62	21962,58
890,79	21745,50
890,97	22004,93
891,14	21547,25
891,32	21817,75
891,50	21547,25
891,67	21821,27
891,85	21682,75
892,02	21860,92
892,20	21899,50
892,38	21967,41
892,55	21606,15
892,73	21986,17
892,90	21743,94
893,08	22016,32
893,25	21704,21
893,43	22147,39
893,60	21753,52
893,78	22139,85
893,96	21780,07
894,13	22091,36
894,31	22023,04
894,48	21919,33
894,66	21808,08
894,83	22033,11
895,01	21739,43
895,18	22022,05
895,36	21707,24
895,53	22039,50
895,71	21853,79
895,89	22023,77
896,06	21717,40
896,24	21984,78
896,41	21786,95
896,59	22075,79
896,76	21501,38
896,94	21930,22
897,11	21872,63
897,29	21877,30
897,46	21608,04
897,64	21856,74
897,81	21656,37
897,99	21580,51
898,16	21615,08
898,34	21738,29
898,51	21517,76
898,69	21546,02
898,86	21461,40
899,04	21582,15
899,21	21201,88
899,39	21518,01
899,56	21161,91
899,74	21622,29
899,91	21289,70
900,09	21421,18
900,26	21332,71
900,44	21259,96
900,61	21252,59
900,79	21658,91
900,96	21287,08
901,14	21356,96
901,31	21141,84
901,49	21311,16
901,66	21099,89
901,84	21223,84
902,01	20920,74
902,19	21118,00
902,36	20698,57
902,54	21093,67
902,71	20817,52
902,88	21099,48
903,06	20533,67
903,23	21096,45
903,41	20717,09
903,58	20781,97
903,76	20417,51
903,93	20860,04
904,11	20723,40
904,28	20721,10
904,45	20556,36
904,63	20613,38
904,80	20244,50
904,98	20596,67
905,15	20181,01
905,33	20526,38
905,50	20246,87
905,68	20446,67
905,85	20143,98
906,02	20193,71
906,20	20166,27
906,37	20013,00
906,55	19716,37
906,72	20135,96
906,90	19742,09
907,07	19772,65
907,24	19654,93
907,42	19588,17
907,59	19397,70
907,77	19497,40
907,94	19211,50
908,11	19504,36
908,29	19198,56
908,46	19386,15
908,64	18941,74
908,81	19279,58
908,98	18956,98
909,16	19205,77
909,33	18801,83
909,51	18893,82
909,68	18710,73
909,85	18907,42
910,03	18671,66
910,20	18568,28
910,37	18524,04
910,55	18536,74
910,72	18379,37
910,90	18324,49
911,07	18156,31
911,24	18139,35
911,42	18201,45
911,59	18105,93
911,76	17945,94
911,94	17970,68
912,11	17825,85
912,29	17944,79
912,46	17551,91
912,63	17888,35
912,81	17416,83
912,98	17741,06
913,15	17372,67
913,33	17689,62
913,50	17435,83
913,67	17454,67
913,85	17214,08
914,02	17485,97
914,19	17174,92
914,37	17250,70
914,54	17088,74
914,71	17084,32
914,89	16914,91
915,06	17055,32
915,23	16800,39
915,41	16866,66
915,58	16691,52
915,75	16767,70
915,93	16655,80
916,10	16805,96
916,27	16543,98
916,45	16724,45
916,62	16372,20
916,79	16657,93
916,97	16286,84
917,14	16475,34
917,31	16093,43
917,49	16253,25
917,66	16164,13
917,83	16165,03
918,00	15959,00
918,18	16050,91
918,35	15706,36
918,52	16003,97
918,70	15585,94
918,87	15779,35
919,04	15568,66
919,21	15773,70
919,39	15409,98
919,56	15672,12
919,73	15253,11
919,91	15473,22
920,08	15288,41
920,25	15334,86
920,42	15336,58
920,60	15281,53
920,77	15022,10
920,94	15229,11
921,11	14872,59
921,29	15145,30
921,46	14662,72
921,63	15068,95
921,81	14686,39
921,98	14821,56
922,15	14597,84
922,32	14803,29
922,50	14547,79
922,67	14646,34
922,84	14468,65
923,01	14371,99
923,19	14266,40
923,36	14404,84
923,53	13951,17
923,70	14261,56
923,87	13933,40
924,05	14188,49
924,22	13893,09
924,39	14038,42
924,56	13599,66
924,74	13879,99
924,91	13758,25
925,08	13806,59
925,25	13644,06
925,43	13755,55
925,60	13353,58
925,77	13720,65
925,94	13439,51
926,11	13482,76
926,29	13204,16
926,46	13432,22
926,63	13099,87
926,80	13257,73
926,97	12979,37
927,15	13206,53
927,32	12892,45
927,49	12895,57
927,66	12739,59
927,83	12968,15
928,01	12685,77
928,18	12755,24
928,35	12441,82
928,52	12808,16
928,69	12365,64
928,87	12549,13
929,04	12249,47
929,21	12481,39
929,38	12145,77
929,55	12384,39
929,72	12037,14
929,90	12148,96
930,07	11989,22
930,24	11951,37
930,41	11821,04
930,58	11997,98
930,75	11830,71
930,93	11861,84
931,10	11712,50
931,27	11709,71
931,44	11587,73
931,61	11625,25
931,78	11459,86
931,95	11603,87
932,13	11261,62
932,30	11556,93
932,47	11048,05
932,64	11343,94
932,81	11138,16
932,98	11203,95
933,15	11109,98
933,33	11141,03
933,50	11022,25
933,67	11003,24
933,84	10848,17
934,01	11021,43
934,18	10789,60
934,35	10941,48
934,52	10709,98
934,70	10941,72
934,87	10665,90
935,04	10767,32
935,21	10654,35
935,38	10784,36
935,55	10537,86
935,72	10732,59
935,89	10449,64
936,06	10593,32
936,24	10233,21
936,41	10560,39
936,58	10184,47
936,75	10370,67
936,92	10136,63
937,09	10299,73
937,26	9987,21
937,43	10232,39
937,60	9988,11
937,77	10051,10
937,94	9922,00
938,12	10080,18
938,29	9754,07
938,46	9964,84
938,63	9704,59
938,80	9929,70
938,97	9632,17
939,14	9807,80
939,31	9499,71
939,48	9784,95
939,65	9397,72
939,82	9583,10
939,99	9461,94
940,16	9591,54
940,33	9305,40
940,50	9468,50
940,67	9248,71
940,85	9444,00
941,02	9178,26
941,19	9407,96
941,36	9120,18
941,53	9260,10
941,70	9065,21
941,87	9064,47
942,04	8987,47
942,21	9134,84
942,38	8869,26
942,55	8908,17
942,72	8733,60
942,89	8882,29
943,06	8567,47
943,23	8709,68
943,40	8558,22
943,57	8629,32
943,74	8540,77
943,91	8648,49
944,08	8438,45
944,25	8634,40
944,42	8284,36
944,59	8429,28
944,76	8276,50
944,93	8454,67
945,10	8176,23
945,27	8361,69
945,44	8023,94
945,61	8310,66
945,78	8017,55
945,95	8154,19
946,12	7908,52
946,29	8228,25
946,46	7955,29
946,63	7999,78
946,80	7909,99
946,97	8014,28
947,14	7770,98
947,31	7996,33
947,48	7786,70
947,65	7843,88
947,82	7755,41
947,99	7911,63
948,16	7563,48
948,33	7952,67
948,50	7598,54
948,67	7672,10
948,84	7505,15
949,01	7617,62
949,18	7427,41
949,35	7649,49
949,52	7272,01
949,68	7587,48
949,85	7321,32
950,02	7422,82
950,19	7176,90
950,36	7443,63
950,53	7123,08
950,70	7218,02
950,87	7049,35
951,04	7281,43
951,21	6827,44
951,38	7118,08
951,55	6950,89
951,72	7031,33
951,89	6838,33
952,06	6975,55
952,23	6773,37
952,39	6886,75
952,56	6645,33
952,73	6826,54
952,90	6656,80
953,07	6894,61
953,24	6528,19
953,41	6774,84
953,58	6418,99
953,75	6698,25
953,92	6379,83
954,09	6572,10
954,25	6319,62
954,42	6558,58
954,59	6259,99
954,76	6403,83
954,93	6149,64
955,10	6434,47
955,27	6151,69
955,44	6300,13
955,61	6089,10
955,77	6315,36
955,94	6019,31
956,11	6239,51
956,28	6049,95
956,45	6162,83
956,62	5965,73
956,79	6133,34
956,96	5964,34
957,12	6116,46
957,29	5873,57
957,46	6088,69
957,63	5868,82
957,80	5998,17
957,97	5766,42
958,14	5995,31
958,30	5668,29
958,47	5886,85
958,64	5634,70
958,81	5851,62
958,98	5572,93
959,15	5754,87
959,32	5537,87
959,48	5727,60
959,65	5552,62
959,82	5708,10
959,99	5431,05
960,16	5601,28
960,33	5502,97
960,49	5551,47
960,66	5323,00
960,83	5536,23
961,00	5307,76
961,17	5457,75
961,33	5205,69
961,50	5401,15
961,67	5138,93
961,84	5420,56
962,01	5131,64
962,18	5358,31
962,34	5160,23
962,51	5261,48
962,68	5034,89
962,85	5197,01
963,02	4914,96
963,18	5155,47
963,35	4921,92
963,52	5079,62
963,69	4936,26
963,86	5054,39
964,02	4709,18
964,19	4992,62
964,36	4768,24
964,53	4935,44
964,69	4665,52
964,86	4925,36
965,03	4620,46
965,20	4747,68
965,37	4567,79
965,53	4691,57
965,70	4546,49
965,87	4718,85
966,04	4504,55
966,20	4657,49
966,37	4518,31
966,54	4573,93
966,71	4502,91
966,87	4587,45
967,04	4434,75
967,21	4540,76
967,38	4403,30
967,54	4509,22
967,71	4320,72
967,88	4487,67
968,05	4326,05
968,21	4369,22
968,38	4258,22
968,55	4358,57
968,72	4203,82
968,88	4291,31
969,05	4218,24
969,22	4287,79
969,39	4108,72
969,55	4225,21
969,72	4082,91
969,89	4174,01
970,05	4082,01
970,22	4165,00
970,39	4032,94
970,56	4167,86
970,72	4026,22
970,89	4126,58
971,06	4034,83
971,22	4106,34
971,39	3951,76
971,56	4072,34
971,73	3949,14
971,89	4120,35
972,06	3907,93
972,23	4065,05
972,39	3885,16
972,56	4017,30
972,73	3801,28
972,89	3942,18
973,06	3864,19
973,23	3927,76
973,39	3792,26
973,56	3885,16
973,73	3775,96
973,89	3887,86
974,06	3735,00
974,23	3825,93
974,39	3744,01
974,56	3797,34
974,73	3670,29
974,89	3727,96
975,06	3652,10
975,23	3763,84
975,39	3605,33
975,56	3741,72
975,73	3621,55
975,89	3694,78
976,06	3572,23
976,23	3639,40
976,39	3583,62
976,56	3621,79
976,73	3554,70
976,89	3574,61
977,06	3526,44
977,23	3579,52
977,39	3494,08
977,56	3555,19
977,72	3464,43
977,89	3542,82
978,06	3456,81
978,22	3495,39
978,39	3438,95
978,56	3501,70
978,72	3399,71
978,89	3485,15
979,05	3424,12
979,22	3479,91
979,39	3386,28
979,55	3432,07
979,72	3380,54
979,88	3462,38
980,05	3372,35
980,22	3438,05
980,38	3365,71
980,55	3419,45
980,71	3355,88
980,88	3390,54
981,05	3338,76
981,21	3384,31
981,38	3325,16
981,54	3365,63
981,71	3324,84
981,88	3356,87
982,04	3293,63
982,21	3330,65
982,37	3280,35
982,54	3330,98
982,70	3279,45
982,87	3309,93
983,04	3247,34
983,20	3308,94
983,37	3247,01
983,53	3298,79
983,70	3254,88
983,86	3298,38
984,03	3260,69
984,20	3257,17
984,36	3250,13
984,53	3269,62
984,69	3218,34
984,86	3248,49
985,02	3226,62
985,19	3259,06
985,35	3196,96
985,52	3262,91
985,68	3214,90
985,85	3222,44
986,02	3213,34
986,18	3228,91
986,35	3206,38
986,51	3213,26
986,68	3190,65
986,84	3208,76
987,01	3190,57
987,17	3226,94
987,34	3199,42
987,50	3205,07
987,67	3199,66
987,83	3198,44
988,00	3183,61
988,16	3190,65
988,33	3155,18
988,49	3192,05
988,66	3157,23
988,82	3189,67
988,99	3165,09
989,15	3178,53
989,32	3146,25
989,48	3157,56
989,65	3158,71
989,81	3161,33
989,98	3152,56
990,14	3175,09
990,31	3147,07
990,47	3152,48
990,64	3120,20
990,80	3151,00
990,97	3147,32
991,13	3141,34
991,30	3132,00
991,46	3142,24
991,63	3116,52
991,79	3141,42
991,95	3119,63
992,12	3152,32
992,28	3115,37
992,45	3142,81
992,61	3104,31
992,78	3147,32
992,94	3115,70
993,11	3142,24
993,27	3101,44
993,44	3140,11
993,60	3101,20
993,76	3132,08
993,93	3123,23
994,09	3115,45
994,26	3120,78
994,42	3112,58
994,59	3104,80
994,75	3112,42
994,91	3100,79
995,08	3135,36
995,24	3099,23
995,41	3128,89
995,57	3112,09
995,74	3113,81
995,90	3109,96
996,06	3113,65
996,23	3118,48
996,39	3102,10
996,56	3090,88
996,72	3113,98
996,88	3096,69
997,05	3107,34
997,21	3103,00
997,38	3108,49
997,54	3090,47
997,70	3121,60
997,87	3102,92
998,03	3121,10
998,20	3079,49
998,36	3111,77
998,52	3090,63
998,69	3099,89
998,85	3092,84
999,02	3105,46
999,18	3105,54
999,34	3096,69
999,51	3086,13
999,67	3107,26
999,83	3095,63
1000,00	3093,74
1000,16	3084,90
1000,33	3098,25
1000,49	3095,22
1000,65	3108,57
1000,82	3097,18
1000,98	3089,65
1001,14	3092,11
1001,31	3094,15
1001,47	3086,86
1001,63	3087,19
1001,80	3087,52
1001,96	3078,83
1002,12	3083,75
1002,29	3094,48
1002,45	3078,75
1002,61	3074,33
1002,78	3081,70
1002,94	3080,72
1003,10	3065,24
1003,27	3092,02
1003,43	3105,79
1003,59	3103,49
1003,76	3091,86
1003,92	3082,77
1004,08	3084,73
1004,25	3093,01
1004,41	3072,85
1004,57	3092,43
1004,74	3091,86
1004,90	3088,91
1005,06	3066,55
1005,23	3084,40
1005,39	3085,31
1005,55	3088,01
1005,71	3094,40
1005,88	3099,07
1006,04	3089,40
1006,20	3093,17
1006,37	3087,68
1006,53	3096,69
1006,69	3086,29
1006,85	3107,67
1007,02	3079,98
1007,18	3084,98
1007,34	3059,50
1007,51	3098,58
1007,67	3076,79
1007,83	3074,90
1007,99	3083,18
1008,16	3084,08
1008,32	3076,70
1008,48	3088,66
1008,64	3066,87
1008,81	3081,87
1008,97	3069,66
1009,13	3070,48
1009,29	3082,44
1009,46	3082,77
1009,62	3087,60
1009,78	3090,38
1009,95	3058,76
1010,11	3084,98
1010,27	3074,74
1010,43	3086,37
1010,59	3074,74
1010,76	3084,40
1010,92	3082,11
1011,08	3105,46
1011,24	3070,97
1011,41	3085,39
1011,57	3066,22
1011,73	3075,97
1011,89	3065,89
1012,06	3078,42
1012,22	3071,30
1012,38	3078,59
1012,54	3066,38
1012,70	3072,94
1012,87	3084,00
1013,03	3086,04
1013,19	3083,50
1013,35	3078,59
1013,51	3056,63
1013,68	3086,21
1013,84	3086,13
1014,00	3069,25
1014,16	3080,72
1014,32	3093,42
1014,49	3072,12
1014,65	3081,54
1014,81	3075,23
1014,97	3090,63
1015,13	3079,90
1015,30	3093,50
1015,46	3058,52
1015,62	3073,02
1015,78	3066,63
1015,94	3085,14
1016,10	3062,70
1016,27	3085,22
1016,43	3088,66
1016,59	3075,56
1016,75	3071,38
1016,91	3091,29
1017,07	3070,56
1017,24	3076,79
1017,40	3066,87
1017,56	3076,05
1017,72	3076,13
1017,88	3074,33
1018,04	3069,41
1018,21	3085,39
1018,37	3061,14
1018,53	3099,48
1018,69	3058,19
1018,85	3079,41
1019,01	3068,84
1019,17	3080,80
1019,34	3070,15
1019,50	3077,61
1019,66	3066,71
1019,82	3088,42
1019,98	3077,61
1020,14	3089,57
1020,30	3076,62
1020,46	3085,39
1020,63	3065,48
1020,79	3067,20
1020,95	3065,89
1021,11	3072,04
1021,27	3076,70
1021,43	3071,87
1021,59	3070,56
1021,75	3078,75
1021,91	3077,61
1022,07	3075,97
1022,24	3064,74
1022,40	3079,41
1022,56	3067,69
1022,72	3078,34
1022,88	3077,93
1023,04	3092,02
1023,20	3051,80
1023,36	3083,83
1023,52	3078,34
1023,68	3085,14
1023,84	3071,13
1024,01	3080,88
1024,17	3070,97
1024,33	3077,77
1024,49	3067,53
1024,65	3069,82
1024,81	3072,77
1024,97	3063,19
1025,13	3062,12
1025,29	3078,59
1025,45	3064,74
1025,61	3081,29
1025,77	3064,83
1025,93	3085,88
1026,09	3062,04
1026,25	3081,62
1026,41	3066,22
1026,57	3054,83
1026,73	3064,25
1026,90	3083,09
1027,06	3081,87
1027,22	3079,08
1027,38	3069,41
1027,54	3070,56
1027,70	3068,43
1027,86	3084,98
1028,02	3082,19
1028,18	3086,70
1028,34	3069,58
1028,50	3078,26
1028,66	3063,11
1028,82	3075,97
1028,98	3050,90
1029,14	3071,95
1029,30	3071,95
1029,46	3086,86
1029,62	3086,13
1029,78	3066,14
1029,94	3071,30
1030,10	3077,52
1030,26	3068,84
1030,42	3063,11
1030,58	3064,91
1030,74	3087,93
1030,90	3066,46
1031,06	3086,04
1031,22	3067,04
1031,38	3077,69
1031,54	3078,02
1031,70	3070,23
1031,86	3064,58
1032,02	3087,85
1032,18	3075,39
1032,34	3081,29
1032,50	3074,57
1032,66	3078,02
1032,82	3076,95
1032,98	3072,69
1033,14	3082,85
1033,30	3080,72
1033,45	3053,93
1033,61	3093,17
1033,77	3065,15
1033,93	3075,07
1034,09	3069,00
1034,25	3076,13
1034,41	3060,57
1034,57	3084,90
1034,73	3080,23
1034,89	3068,92
1035,05	3062,61
1035,21	3071,05
1035,37	3063,60
1035,53	3068,51
1035,69	3069,58
1035,85	3072,28
1036,01	3044,10
1036,16	3073,59
1036,32	3067,78
1036,48	3068,92
1036,64	3075,48
1036,80	3077,85
1036,96	3059,58
1037,12	3077,20
1037,28	3081,13
1037,44	3077,69
1037,60	3087,11
1037,76	3076,05
1037,91	3072,69
1038,07	3060,65
1038,23	3070,31
1038,39	3078,67
1038,55	3056,22
1038,71	3087,85
1038,87	3055,82
1039,03	3078,51
1039,19	3078,83
1039,35	3085,88
1039,50	3069,33
1039,66	3080,23
1039,82	3074,16
1039,98	3065,97
1040,14	3077,61
1040,30	3083,83
1040,46	3068,35
1040,62	3081,21
1040,77	3080,96
1040,93	3054,67
1041,09	3062,37
1041,25	3077,36
1041,41	3068,27
1041,57	3083,18
1041,73	3083,18
1041,88	3083,18
>>>>>End Processed Spectral Data<<<<<
