SpectraSuite Data File
++++++++++++++++++++++++++++++++++++
Date: Tue Sep 13 12:42:00 EDT 2022
User: Laboratoire
Dark Spectrum Present: No
Reference Spectrum Present: No
Number of Sampled Component Spectra: 1
Spectrometers: FLMT00174
Integration Time (usec): 12000 (FLMT00174)
Spectra Averaged: 25 (FLMT00174)
Boxcar Smoothing: 0 (FLMT00174)
Correct for Electrical Dark: No (FLMT00174)
Strobe/Lamp Enabled: No (FLMT00174)
Correct for Detector Non-linearity: No (FLMT00174)
Correct for Stray Light: No (FLMT00174)
Number of Pixels in Processed Spectrum: 3648
>>>>>Begin Processed Spectral Data<<<<<
345,74	3150,10
345,96	3150,10
346,18	3150,10
346,39	3154,69
346,61	3191,14
346,83	3175,99
347,05	3168,45
347,27	3168,21
347,49	3181,81
347,71	3175,99
347,93	3183,28
348,15	3194,18
348,36	3178,20
348,58	3205,07
348,80	3179,35
349,02	3182,71
349,24	3188,28
349,46	3306,81
349,68	3368,25
349,90	3367,76
350,11	3366,45
350,33	3368,09
350,55	3353,51
350,77	3372,35
350,99	3355,06
351,21	3370,96
351,43	3354,16
351,65	3367,02
351,86	3374,40
352,08	3363,91
352,30	3353,34
352,52	3377,18
352,74	3356,54
352,96	3363,17
353,18	3363,01
353,39	3385,70
353,61	3385,29
353,83	3386,28
354,05	3389,22
354,27	3399,79
354,49	3380,21
354,70	3373,00
354,92	3384,06
355,14	3371,45
355,36	3357,69
355,58	3391,11
355,80	3387,26
356,02	3391,52
356,23	3385,54
356,45	3369,65
356,67	3365,71
356,89	3396,43
357,11	3382,02
357,33	3407,16
357,54	3365,22
357,76	3381,44
357,98	3376,61
358,20	3390,62
358,42	3378,00
358,63	3380,79
358,85	3387,09
359,07	3388,24
359,29	3374,40
359,51	3395,37
359,73	3371,61
359,94	3395,45
360,16	3380,05
360,38	3399,46
360,60	3391,85
360,82	3392,17
361,03	3417,98
361,25	3384,96
361,47	3400,69
361,69	3411,01
361,91	3396,27
362,12	3407,16
362,34	3390,04
362,56	3416,26
362,78	3398,40
363,00	3419,62
363,21	3390,78
363,43	3418,22
363,65	3380,54
363,87	3416,09
364,09	3427,32
364,30	3395,12
364,52	3399,38
364,74	3409,70
364,96	3405,94
365,17	3421,42
365,39	3391,93
365,61	3403,72
365,83	3443,37
366,05	3402,74
366,26	3409,79
366,48	3416,09
366,70	3424,37
366,92	3441,82
367,13	3429,12
367,35	3428,96
367,57	3427,73
367,79	3423,14
368,01	3442,47
368,22	3429,77
368,44	3425,92
368,66	3420,19
368,88	3434,28
369,09	3435,02
369,31	3414,37
369,53	3437,39
369,75	3443,70
369,96	3458,69
370,18	3445,91
370,40	3463,61
370,62	3430,59
370,83	3447,30
371,05	3451,40
371,27	3450,83
371,49	3448,45
371,70	3434,12
371,92	3453,12
372,14	3453,53
372,36	3448,29
372,57	3460,99
372,79	3450,17
373,01	3464,43
373,22	3456,15
373,44	3467,78
373,66	3472,45
373,88	3471,63
374,09	3470,98
374,31	3469,26
374,53	3455,99
374,75	3469,34
374,96	3474,99
375,18	3495,72
375,40	3470,98
375,61	3494,08
375,83	3480,32
376,05	3482,61
376,27	3483,02
376,48	3469,83
376,70	3471,23
376,92	3474,99
377,13	3480,48
377,35	3473,19
377,57	3487,53
377,79	3473,11
378,00	3487,04
378,22	3504,24
378,44	3496,95
378,65	3519,64
378,87	3518,00
379,09	3526,68
379,30	3509,15
379,52	3522,51
379,74	3511,20
379,96	3531,44
380,17	3511,86
380,39	3527,99
380,61	3527,09
380,82	3532,01
381,04	3533,24
381,26	3540,20
381,47	3555,19
381,69	3559,70
381,91	3566,41
382,12	3579,69
382,34	3575,34
382,56	3575,43
382,77	3561,58
382,99	3579,85
383,21	3556,83
383,42	3587,22
383,64	3582,63
383,86	3567,97
384,07	3589,35
384,29	3588,61
384,51	3598,12
384,72	3606,39
384,94	3601,64
385,16	3601,72
385,37	3618,76
385,59	3620,15
385,81	3633,26
386,02	3618,52
386,24	3633,18
386,46	3644,32
386,67	3653,41
386,89	3674,79
387,11	3657,10
387,32	3657,18
387,54	3651,36
387,76	3668,90
387,97	3685,28
388,19	3690,52
388,40	3673,24
388,62	3673,89
388,84	3684,38
389,05	3703,14
389,27	3707,81
389,49	3701,58
389,70	3692,32
389,92	3714,69
390,14	3726,24
390,35	3722,55
390,57	3733,94
390,78	3749,50
391,00	3743,77
391,22	3746,39
391,43	3740,25
391,65	3781,37
391,86	3786,94
392,08	3788,09
392,30	3791,20
392,51	3800,05
392,73	3837,98
392,95	3796,28
393,16	3797,51
393,38	3849,61
393,59	3828,47
393,81	3855,67
394,03	3832,65
394,24	3843,63
394,46	3839,86
394,67	3891,63
394,89	3876,97
395,11	3889,42
395,32	3874,67
395,54	3913,42
395,75	3914,82
395,97	3907,20
396,19	3903,51
396,40	3942,67
396,62	3941,68
396,83	3932,26
397,05	3935,54
397,26	3962,08
397,48	3961,51
397,70	3933,41
397,91	4012,46
398,13	3966,18
398,34	4000,50
398,56	4025,16
398,78	3970,68
398,99	4045,89
399,21	4027,21
399,42	4035,65
399,64	4029,83
399,85	4064,73
400,07	4061,29
400,29	4104,21
400,50	4071,03
400,72	4109,78
400,93	4072,43
401,15	4119,69
401,36	4105,03
401,58	4149,10
401,79	4142,06
402,01	4134,19
402,23	4137,96
402,44	4176,05
402,66	4177,12
402,87	4173,68
403,09	4164,50
403,30	4190,72
403,52	4182,69
403,73	4181,79
403,95	4234,79
404,16	4226,27
404,38	4250,93
404,60	4229,30
404,81	4262,97
405,03	4259,61
405,24	4275,59
405,46	4293,69
405,67	4292,38
405,89	4340,71
406,10	4313,02
406,32	4322,36
406,53	4348,17
406,75	4343,99
406,96	4371,68
407,18	4347,84
407,39	4352,67
407,61	4400,35
407,82	4397,32
408,04	4414,60
408,25	4426,56
408,47	4450,89
408,68	4452,94
408,90	4436,88
409,12	4459,49
409,33	4471,37
409,55	4457,53
409,76	4461,46
409,98	4476,29
410,19	4495,46
410,41	4530,93
410,62	4537,07
410,84	4519,62
411,05	4563,53
411,27	4590,81
411,48	4564,35
411,70	4580,57
411,91	4619,07
412,12	4643,15
412,34	4588,11
412,55	4641,68
412,77	4614,81
412,98	4678,54
413,20	4644,63
413,41	4673,46
413,63	4687,55
413,84	4676,99
414,06	4704,02
414,27	4719,18
414,49	4732,77
414,70	4732,61
414,92	4770,05
415,13	4717,70
415,35	4777,99
415,56	4783,65
415,78	4797,82
415,99	4817,31
416,21	4809,29
416,42	4854,18
416,63	4843,94
416,85	4856,47
417,06	4862,53
417,28	4839,10
417,49	4901,85
417,71	4890,88
417,92	4870,56
418,14	4908,90
418,35	4952,48
418,57	4982,22
418,78	4974,68
418,99	4955,92
419,21	4991,56
419,42	5002,53
419,64	4990,41
419,85	5002,94
420,07	5096,33
420,28	5020,64
420,50	5002,94
420,71	5060,94
420,92	5059,55
421,14	5106,65
421,35	5083,63
421,57	5096,33
421,78	5121,23
422,00	5141,30
422,21	5159,24
422,42	5158,10
422,64	5138,44
422,85	5202,17
423,07	5226,91
423,28	5211,26
423,50	5246,98
423,71	5270,98
423,92	5303,58
424,14	5269,67
424,35	5275,98
424,57	5315,79
424,78	5324,80
424,99	5369,20
425,21	5372,72
425,42	5390,09
425,64	5363,30
425,85	5398,28
426,06	5375,92
426,28	5425,56
426,49	5495,27
426,71	5420,73
426,92	5456,77
427,13	5498,55
427,35	5561,22
427,56	5570,64
427,78	5524,93
427,99	5574,16
428,20	5620,53
428,42	5623,89
428,63	5663,29
428,84	5546,15
429,06	5654,11
429,27	5685,90
429,49	5713,10
429,70	5752,17
429,91	5688,03
430,13	5752,74
430,34	5751,52
430,56	5759,22
430,77	5840,23
430,98	5763,97
431,20	5816,23
431,41	5870,22
431,62	5876,61
431,84	5846,71
432,05	5883,65
432,26	5898,64
432,48	5858,50
432,69	5955,49
432,91	5948,37
433,12	5955,00
433,33	5964,34
433,55	6043,31
433,76	6099,10
433,97	6039,21
434,19	6038,23
434,40	6098,77
434,61	6105,90
434,83	6129,32
435,04	6092,95
435,25	6155,13
435,47	6174,87
435,68	6138,83
435,89	6279,89
436,11	6223,37
436,32	6234,59
436,53	6242,54
436,75	6217,47
436,96	6278,99
437,17	6236,15
437,39	6253,43
437,60	6306,35
437,81	6317,41
438,03	6342,97
438,24	6344,20
438,45	6438,40
438,67	6397,04
438,88	6422,10
439,09	6513,85
439,31	6465,36
439,52	6501,73
439,73	6476,91
439,94	6439,22
440,16	6519,09
440,37	6467,98
440,58	6578,49
440,80	6619,53
441,01	6543,26
441,22	6702,59
441,44	6670,15
441,65	6622,48
441,86	6652,79
442,08	6659,75
442,29	6702,26
442,50	6742,40
442,71	6712,01
442,93	6740,93
443,14	6739,87
443,35	6818,10
443,57	6727,25
443,78	6857,66
443,99	6838,09
444,20	6817,77
444,42	6871,92
444,63	6877,16
444,84	6934,09
445,06	6960,55
445,27	6888,22
445,48	6880,85
445,69	6995,12
445,91	6955,97
446,12	6919,51
446,33	7018,88
446,54	7065,00
446,76	6984,15
446,97	7049,27
447,18	7053,53
447,39	7096,62
447,61	7146,10
447,82	7153,55
448,03	7114,56
448,25	7164,70
448,46	7242,93
448,67	7265,70
448,88	7177,64
449,10	7287,66
449,31	7276,27
449,52	7286,02
449,73	7310,27
449,95	7374,08
450,16	7315,34
450,37	7426,59
450,58	7557,74
450,79	7348,60
451,01	7428,06
451,22	7387,35
451,43	7424,87
451,64	7538,57
451,86	7499,01
452,07	7517,11
452,28	7548,49
452,49	7678,65
452,71	7529,07
452,92	7539,88
453,13	7601,16
453,34	7624,92
453,55	7696,76
453,77	7743,78
453,98	7704,87
454,19	7670,13
454,40	7763,11
454,62	7798,17
454,83	7710,85
455,04	7900,08
455,25	7762,78
455,46	8020,01
455,68	7880,26
455,89	7909,42
456,10	7911,63
456,31	7943,58
456,52	7981,59
456,74	7958,90
456,95	8128,88
457,16	8051,22
457,37	8142,07
457,58	8119,54
457,80	8057,36
458,01	8064,90
458,22	8387,58
458,43	8199,33
458,64	8230,05
458,86	8142,81
459,07	8225,30
459,28	8193,27
459,49	8335,97
459,70	8446,97
459,91	8380,45
460,13	8346,70
460,34	8384,06
460,55	8377,34
460,76	8469,83
460,97	8503,41
461,19	8492,43
461,40	8688,38
461,61	8579,35
461,82	8584,43
462,03	8654,22
462,24	8588,69
462,46	8622,19
462,67	8598,03
462,88	8710,42
463,09	8682,32
463,30	8769,57
463,51	8700,59
463,72	8878,76
463,94	8910,22
464,15	8880,81
464,36	8793,65
464,57	9034,08
464,78	8978,54
464,99	8995,01
465,20	8964,53
465,42	9111,90
465,63	9105,51
465,84	9069,63
466,05	9167,85
466,26	9192,51
466,47	9260,01
466,68	9199,72
466,90	9310,07
467,11	9280,00
467,32	9360,86
467,53	9477,51
467,74	9299,58
467,95	9410,66
468,16	9513,06
468,37	9603,66
468,59	9553,12
468,80	9721,63
469,01	9544,76
469,22	9648,88
469,43	9815,75
469,64	9741,45
469,85	9773,81
470,06	9837,13
470,28	9946,49
470,49	9788,55
470,70	9939,94
470,91	10113,20
471,12	9981,96
471,33	10200,44
471,54	10105,91
471,75	10092,23
471,96	10297,43
472,17	10242,30
472,39	10479,78
472,60	10282,44
472,81	10498,54
473,02	10425,14
473,23	10589,88
473,44	10629,94
473,65	10564,00
473,86	10687,69
474,07	10699,16
474,28	10724,23
474,49	10970,15
474,71	10885,61
474,92	10989,48
475,13	10947,46
475,34	11006,52
475,55	11019,96
475,76	11134,81
475,97	11313,31
476,18	11243,10
476,39	11389,66
476,60	11430,29
476,81	11490,99
477,02	11636,15
477,23	11619,60
477,44	11604,94
477,65	11730,68
477,87	11866,34
478,08	11908,04
478,29	11923,85
478,50	12153,96
478,71	12062,62
478,92	12155,92
479,13	12183,94
479,34	12229,16
479,55	12301,25
479,76	12297,40
479,97	12332,54
480,18	12655,14
480,39	12482,21
480,60	12696,18
480,81	12714,61
481,02	12746,48
481,23	12814,22
481,44	12972,33
481,65	13046,79
481,86	13173,60
482,07	12914,90
482,28	13447,45
482,49	13252,98
482,71	13309,50
482,92	13416,98
483,13	13602,69
483,34	13478,50
483,55	13599,74
483,76	13594,25
483,97	13796,67
484,18	13729,09
484,39	13853,53
484,60	13850,99
484,81	14052,34
485,02	14019,25
485,23	14178,09
485,44	14216,34
485,65	14320,38
485,86	14226,09
486,07	14442,44
486,28	14409,67
486,49	14518,71
486,70	14611,60
486,91	14736,94
487,12	14644,21
487,33	14628,48
487,54	14993,75
487,75	14987,12
487,96	15013,82
488,17	14938,46
488,38	15147,51
488,59	15183,48
488,80	15225,99
489,01	15289,40
489,22	15520,74
489,43	15475,43
489,64	15373,12
489,85	15718,32
490,06	15532,61
490,26	15716,28
490,47	15687,28
490,68	15864,06
490,89	16055,42
491,10	15833,09
491,31	16023,88
491,52	16155,11
491,73	16068,85
491,94	16052,96
492,15	16246,37
492,36	16335,09
492,57	16300,36
492,78	16280,78
492,99	16351,97
493,20	16542,10
493,41	16529,89
493,62	16579,86
493,83	16567,00
494,04	16685,13
494,25	16812,19
494,46	16768,93
494,67	16680,13
494,88	16877,64
495,08	16852,73
495,29	16985,20
495,50	17067,94
495,71	17024,52
495,92	17180,41
496,13	17239,88
496,34	17144,78
496,55	17276,25
496,76	17478,84
496,97	17255,69
497,18	17432,47
497,39	17434,93
497,60	17700,18
497,81	17462,37
498,02	17602,29
498,22	17462,78
498,43	17673,64
498,64	17773,17
498,85	17759,33
499,06	17822,98
499,27	17995,34
499,48	17642,76
499,69	17848,38
499,90	17927,43
500,11	17997,30
500,32	18194,40
500,52	18009,43
500,73	18375,11
500,94	18293,60
501,15	18338,66
501,36	18310,89
501,57	18241,99
501,78	18290,41
501,99	18463,67
502,20	18470,06
502,41	18575,98
502,61	18456,87
502,82	18715,98
503,03	18575,81
503,24	18784,95
503,45	18648,64
503,66	18890,38
503,87	18788,72
504,08	19013,75
504,28	18906,52
504,49	19029,64
504,70	19065,77
504,91	19117,05
505,12	18984,59
505,33	19260,41
505,54	19205,93
505,75	19226,74
505,95	19378,86
506,16	19298,58
506,37	19202,98
506,58	19515,91
506,79	19336,10
507,00	19623,96
507,21	19410,57
507,41	19544,83
507,62	19586,77
507,83	19783,79
508,04	19636,09
508,25	19839,08
508,46	19650,67
508,67	19964,34
508,87	19808,20
509,08	19977,77
509,29	19949,92
509,50	20028,48
509,71	20118,26
509,92	20142,02
510,12	20065,42
510,33	20134,81
510,54	20076,65
510,75	20196,17
510,96	20365,66
511,17	20490,09
511,37	20404,65
511,58	20539,41
511,79	20375,00
512,00	20421,53
512,21	20630,25
512,42	20625,34
512,62	20695,13
512,83	20744,94
513,04	20688,66
513,25	20862,49
513,46	20570,70
513,66	21060,57
513,87	20913,53
514,08	21079,25
514,29	20983,08
514,50	20970,79
514,71	21187,38
514,91	21063,60
515,12	21093,26
515,33	21316,41
515,54	21254,97
515,75	21484,75
515,95	21343,52
516,16	21338,44
516,37	21574,86
516,58	21599,03
516,78	21488,19
516,99	21689,14
517,20	21580,02
517,41	21669,97
517,62	21710,03
517,82	21716,25
518,03	22007,72
518,24	22202,27
518,45	21889,10
518,66	22128,55
518,86	22036,31
519,07	22321,63
519,28	22003,05
519,49	22370,45
519,69	22368,98
519,90	22449,75
520,11	22457,70
520,32	22373,08
520,52	22589,83
520,73	22403,55
520,94	22645,95
521,15	22618,83
521,36	22434,92
521,56	22852,96
521,77	22580,25
521,98	22943,23
522,19	22647,99
522,39	22921,93
522,60	22854,27
522,81	22903,75
523,02	22874,17
523,22	23134,59
523,43	23226,42
523,64	23181,53
523,84	23248,71
524,05	23443,92
524,26	23402,55
524,47	23267,46
524,67	23408,04
524,88	23427,29
525,09	23627,17
525,30	23534,19
525,50	23527,15
525,71	23611,11
525,92	23693,28
526,13	23855,64
526,33	23734,89
526,54	23697,21
526,75	23816,89
526,95	24087,14
527,16	23704,17
527,37	24064,12
527,58	24121,22
527,78	24068,06
527,99	24219,69
528,20	24295,63
528,40	24184,30
528,61	24119,42
528,82	24421,78
529,03	24415,97
529,23	24430,30
529,44	24624,61
529,65	24595,37
529,85	24626,91
530,06	24547,20
530,27	24689,00
530,47	24528,28
530,68	25063,37
530,89	24660,90
531,09	25101,54
531,30	25014,96
531,51	24823,35
531,72	25162,25
531,92	25126,28
532,13	25336,65
532,34	25221,31
532,54	25195,34
532,75	25352,95
532,96	25305,44
533,16	25479,35
533,37	25552,59
533,58	25459,86
533,78	25679,97
533,99	25783,60
534,20	25490,82
534,40	25659,25
534,61	25785,97
534,82	25941,46
535,02	25947,60
535,23	25990,12
535,44	26140,36
535,64	26052,78
535,85	26200,81
536,06	26140,52
536,26	26123,64
536,47	26191,80
536,68	26588,53
536,88	26208,02
537,09	26533,24
537,29	26271,10
537,50	26788,99
537,71	26507,02
537,91	26727,38
538,12	26773,26
538,33	26633,18
538,53	26784,48
538,74	26803,32
538,95	26819,46
539,15	26856,16
539,36	27000,01
539,56	27168,35
539,77	26987,48
539,98	26995,50
540,18	27168,35
540,39	27079,88
540,60	27272,23
540,80	27379,95
541,01	27309,75
541,21	27290,82
541,42	27403,95
541,63	27411,82
541,83	27675,18
542,04	27700,33
542,25	27692,14
542,45	27886,94
542,66	27843,69
542,86	28002,61
543,07	27502,17
543,28	28076,59
543,48	27909,88
543,69	28131,47
543,89	28011,54
544,10	28385,26
544,31	28246,49
544,51	28150,31
544,72	28362,56
544,92	28297,19
545,13	28610,78
545,33	28538,44
545,54	28477,09
545,75	28638,39
545,95	28520,26
546,16	28643,87
546,36	28974,01
546,57	28541,80
546,78	28120,58
546,98	28474,38
547,19	27957,39
547,39	28513,13
547,60	28728,99
547,80	29182,98
548,01	29296,44
548,22	29068,38
548,42	29109,01
548,63	29387,94
548,83	29305,61
549,04	29448,32
549,24	29326,83
549,45	29493,45
549,65	29780,01
549,86	29381,39
550,07	29585,12
550,27	29839,81
550,48	29804,50
550,68	29816,46
550,89	29769,19
551,09	29939,91
551,30	29706,36
551,50	29947,12
551,71	29785,17
551,91	29910,50
552,12	30078,44
552,33	30345,41
552,53	30103,01
552,74	30454,85
552,94	30444,53
553,15	30281,68
553,35	30531,77
553,56	30239,16
553,76	30621,56
553,97	30337,71
554,17	30553,65
554,38	30965,12
554,58	30535,62
554,79	30981,51
554,99	30620,00
555,20	30741,16
555,40	31149,28
555,61	30870,51
555,81	30725,27
556,02	31234,47
556,22	31100,70
556,43	31054,42
556,63	31155,75
556,84	31054,01
557,04	31551,66
557,25	31162,30
557,45	31482,85
557,66	31447,22
557,86	31258,47
558,07	31706,41
558,27	31514,39
558,48	31575,17
558,68	31594,01
558,89	31780,05
559,09	31830,19
559,30	31628,91
559,50	31968,05
559,71	31805,69
559,91	32277,79
560,12	32113,13
560,32	32081,84
560,53	32185,22
560,73	32020,56
560,94	32359,05
561,14	32122,39
561,35	32585,64
561,55	32425,90
561,76	32517,16
561,96	32090,77
562,17	32388,46
562,37	32585,15
562,57	32433,19
562,78	32517,16
562,98	32780,12
563,19	32830,41
563,39	33142,61
563,60	33139,98
563,80	32780,44
564,01	33153,58
564,21	32869,33
564,42	32816,08
564,62	32991,38
564,82	33327,09
565,03	33053,40
565,23	33260,81
565,44	33417,93
565,64	33273,51
565,85	33535,90
566,05	33313,90
566,25	33517,47
566,46	33398,68
566,66	33611,02
566,87	33659,43
567,07	33677,62
567,28	33699,16
567,48	33911,90
567,68	33548,92
567,89	34137,26
568,09	33840,39
568,30	33877,17
568,50	34166,51
568,71	34055,43
568,91	34276,85
569,11	34012,83
569,32	34138,00
569,52	34315,03
569,73	34021,43
569,93	34516,38
570,13	34282,26
570,34	34206,32
570,54	34636,89
570,75	34527,93
570,95	34534,24
571,15	34527,52
571,36	34869,45
571,56	34630,74
571,77	34623,62
571,97	34464,69
572,17	34925,32
572,38	35000,44
572,58	35214,33
572,79	35133,72
572,99	35157,32
573,19	35094,57
573,40	35060,32
573,60	35160,51
573,81	35062,04
574,01	35179,84
574,21	35099,32
574,42	35107,18
574,62	35010,27
574,82	35384,23
575,03	35222,52
575,23	35557,41
575,43	35321,97
575,64	35355,07
575,84	35689,13
576,05	35367,93
576,25	35558,88
576,45	35412,57
576,66	35910,72
576,86	35755,90
577,06	36069,73
577,27	35967,08
577,47	36078,41
577,67	36028,03
577,88	35650,06
578,08	36144,93
578,28	36208,33
578,49	36162,29
578,69	36381,02
578,89	36155,58
579,10	36310,81
579,30	36794,95
579,50	36483,01
579,71	36279,93
579,91	36745,64
580,11	36624,89
580,32	36522,16
580,52	36605,31
580,72	36987,13
580,93	36500,87
581,13	36610,47
581,33	37061,27
581,54	36708,45
581,74	36835,42
581,94	37029,65
582,15	37271,47
582,35	36926,19
582,55	37117,22
582,76	36941,34
582,96	37532,96
583,16	37293,18
583,37	37516,99
583,57	37297,69
583,77	37746,28
583,97	36949,70
584,18	37813,45
584,38	37592,68
584,58	37339,55
584,79	37674,52
584,99	37587,03
585,19	37472,09
585,40	37504,70
585,60	37749,72
585,80	37567,86
586,00	37945,26
586,21	37971,47
586,41	38043,07
586,61	38278,09
586,82	38165,13
587,02	38071,17
587,22	38399,09
587,42	38021,36
587,63	38515,74
587,83	37916,99
588,03	38211,00
588,23	37861,13
588,44	38173,73
588,64	37944,93
588,84	38272,69
589,05	38568,74
589,25	38599,62
589,45	38674,25
589,65	38479,69
589,86	38736,67
590,06	38754,61
590,26	38683,75
590,46	38997,26
590,67	38463,72
590,87	38985,87
591,07	39056,81
591,27	38653,69
591,48	38942,45
591,68	38579,88
591,88	39284,22
592,08	38724,71
592,29	39262,43
592,49	39179,69
592,69	39480,17
592,89	39170,60
593,10	39434,05
593,30	39325,42
593,50	39932,44
593,70	39053,29
593,90	39827,91
594,11	39706,59
594,31	39768,52
594,51	40013,13
594,71	40042,62
594,92	39905,82
595,12	39749,84
595,32	39770,24
595,52	40004,45
595,72	39416,60
595,93	40252,58
596,13	40072,36
596,33	39910,08
596,53	40569,61
596,73	40410,85
596,94	40339,09
597,14	40725,74
597,34	40383,90
597,54	40584,92
597,74	40291,16
597,95	40372,84
598,15	40491,13
598,35	40617,94
598,55	40746,30
598,75	40562,64
598,96	41007,46
599,16	40704,44
599,36	40821,10
599,56	40839,77
599,76	40839,86
599,97	41397,48
600,17	41274,93
600,37	41406,49
600,57	40632,44
600,77	41358,65
600,97	41043,42
601,18	41555,91
601,38	41082,01
601,58	41248,38
601,78	41126,57
601,98	41076,76
602,18	41488,32
602,39	41745,55
602,59	41613,00
602,79	41544,85
602,99	41603,01
603,19	41778,15
603,39	41689,52
603,60	41809,77
603,80	41784,38
604,00	41664,94
604,20	41666,74
604,40	41949,28
604,60	41698,94
604,80	41820,10
605,01	42054,06
605,21	41882,76
605,41	41881,12
605,61	41760,29
605,81	42253,28
606,01	42369,20
606,21	42005,56
606,42	42447,18
606,62	42296,04
606,82	42674,43
607,02	42468,81
607,22	42707,52
607,42	43008,65
607,62	42391,97
607,82	42682,62
608,03	42733,57
608,23	42606,76
608,43	42457,51
608,63	42914,78
608,83	42736,44
609,03	42772,32
609,23	42758,31
609,43	42852,11
609,63	42622,98
609,84	42576,21
610,04	43098,60
610,24	43033,31
610,44	43123,83
610,64	42922,31
610,84	43161,43
611,04	43539,90
611,24	43257,11
611,44	42690,48
611,64	43317,08
611,85	43391,38
612,05	43339,28
612,25	43396,29
612,45	43248,18
612,65	43458,55
612,85	43453,80
613,05	43172,33
613,25	43699,48
613,45	43557,59
613,65	43731,01
613,85	43468,22
614,05	43959,65
614,25	44188,86
614,46	43942,45
614,66	43856,43
614,86	43798,27
615,06	43982,01
615,26	44242,02
615,46	43628,70
615,66	44255,87
615,86	44104,15
616,06	43880,76
616,26	43955,06
616,46	44427,16
616,66	43945,89
616,86	44280,20
617,06	44033,13
617,26	44490,24
617,46	44365,88
617,66	44294,37
617,86	44031,74
618,07	44336,89
618,27	44438,87
618,47	44523,99
618,67	44604,68
618,87	44761,63
619,07	44586,90
619,27	44477,95
619,47	44568,31
619,67	45143,38
619,87	44635,56
620,07	44961,35
620,27	44907,61
620,47	44578,95
620,67	44999,28
620,87	44881,73
621,07	45014,27
621,27	45017,38
621,47	44734,68
621,67	45218,09
621,87	44893,28
622,07	45479,57
622,27	45334,08
622,47	45051,54
622,67	45146,73
622,87	44741,48
623,07	45325,89
623,27	45751,95
623,47	44916,38
623,67	45400,44
623,87	45638,08
624,07	45443,20
624,27	45108,56
624,47	45499,80
624,67	45365,78
624,87	45520,04
625,07	45214,81
625,27	45629,73
625,47	45334,82
625,67	45301,81
625,87	45613,75
626,07	45542,73
626,27	45783,98
626,47	45728,77
626,67	45710,01
626,87	45435,58
627,07	46036,29
627,27	45987,88
627,47	46125,91
627,67	45919,56
627,87	45885,72
628,07	46118,62
628,27	45807,82
628,47	45600,15
628,67	46028,10
628,86	46041,29
629,06	45829,04
629,26	45813,47
629,46	46275,82
629,66	45997,71
629,86	45675,85
630,06	46184,15
630,26	46107,40
630,46	46599,81
630,66	46192,02
630,86	46454,32
631,06	46509,53
631,26	46405,09
631,46	46971,39
631,66	46877,68
631,86	46416,06
632,06	46539,76
632,26	46312,19
632,45	46329,89
632,65	46447,28
632,85	46549,02
633,05	46560,57
633,25	46656,33
633,45	46423,19
633,65	46679,11
633,85	47248,52
634,05	46609,56
634,25	46906,84
634,45	47069,45
634,65	47277,69
634,84	46985,89
635,04	47035,78
635,24	46759,47
635,44	47171,60
635,64	46916,59
635,84	47125,73
636,04	47052,49
636,24	47001,05
636,44	47140,06
636,64	46644,29
636,84	47438,49
637,03	47014,89
637,23	47211,82
637,43	47334,95
637,63	47254,34
637,83	47503,37
638,03	47506,57
638,23	47199,21
638,43	47684,17
638,62	47905,76
638,82	47113,11
639,02	47849,23
639,22	47487,40
639,42	47607,65
639,62	47247,29
639,82	47337,32
640,02	47536,06
640,21	47609,95
640,41	47004,98
640,61	47523,61
640,81	47515,58
641,01	47461,84
641,21	47519,43
641,41	48167,73
641,61	47785,17
641,80	47988,66
642,00	48280,86
642,20	48270,71
642,40	47640,42
642,60	48140,78
642,80	48349,51
642,99	47981,53
643,19	48363,11
643,39	47907,64
643,59	48375,73
643,79	48176,33
643,99	48564,38
644,19	48261,28
644,38	48028,31
644,58	48356,72
644,78	48175,19
644,98	48230,97
645,18	48474,11
645,38	48563,65
645,57	48308,39
645,77	48450,60
645,97	48284,96
646,17	48663,67
646,37	48628,69
646,56	48212,38
646,76	48380,97
646,96	48460,18
647,16	48282,75
647,36	48553,57
647,55	48363,52
647,75	48693,00
647,95	48295,53
648,15	48611,41
648,35	48544,31
648,55	48837,75
648,74	48786,47
648,94	48833,65
649,14	49353,67
649,34	49057,86
649,54	49146,25
649,73	49174,19
649,93	48877,89
650,13	49010,92
650,33	48696,93
650,52	49117,58
650,72	49289,04
650,92	49087,19
651,12	48955,55
651,32	49314,51
651,51	49391,35
651,71	49242,59
651,91	48997,41
652,11	48792,94
652,30	48664,82
652,50	49192,05
652,70	49229,32
652,90	48774,67
653,10	49154,61
653,29	49125,20
653,49	49627,03
653,69	49164,77
653,89	49531,68
654,08	49419,21
654,28	49927,59
654,48	49466,47
654,68	49674,38
654,87	49426,01
655,07	49122,33
655,27	49574,77
655,47	49307,39
655,66	49451,32
655,86	49364,81
656,06	50045,15
656,26	49238,17
656,45	49794,07
656,65	49909,24
656,85	49734,68
657,04	49598,44
657,24	49622,20
657,44	49607,95
657,64	50100,93
657,83	49249,31
658,03	49986,17
658,23	50022,21
658,43	49616,96
658,62	49849,03
658,82	49784,32
659,02	49728,70
659,21	49871,23
659,41	49547,82
659,61	49996,98
659,81	49533,81
660,00	49467,13
660,20	49677,09
660,40	49540,04
660,59	49745,32
660,79	49452,87
660,99	49962,16
661,19	50115,35
661,38	50092,17
661,58	49459,43
661,78	49990,84
661,97	49877,21
662,17	50439,83
662,37	49730,17
662,56	49811,43
662,76	49801,52
662,96	50009,10
663,15	50186,87
663,35	50205,87
663,55	50087,50
663,74	49894,01
663,94	50406,16
664,14	49786,86
664,33	50215,62
664,53	50043,43
664,73	50427,54
664,93	49769,41
665,12	50347,35
665,32	50085,04
665,52	50334,57
665,71	50179,49
665,91	50559,35
666,10	50236,35
666,30	50700,50
666,50	50080,21
666,69	50134,60
666,89	50417,63
667,09	50721,14
667,28	50142,06
667,48	50059,97
667,68	50276,98
667,87	50309,50
668,07	50025,24
668,27	50594,74
668,46	50698,53
668,66	50476,04
668,86	51076,83
669,05	50642,09
669,25	50848,52
669,44	50630,70
669,64	50475,79
669,84	50556,40
670,03	50869,66
670,23	50469,65
670,43	50591,96
670,62	50594,33
670,82	50541,82
671,01	50837,96
671,21	50495,29
671,41	50588,92
671,60	50801,67
671,80	51058,97
672,00	50646,43
672,19	50969,68
672,39	50908,24
672,58	50716,96
672,78	50756,45
672,98	51257,14
673,17	51045,78
673,37	50411,24
673,56	50843,45
673,76	51054,71
673,96	51113,70
674,15	50946,09
674,35	51087,40
674,54	51042,51
674,74	51009,17
674,94	50902,92
675,13	51125,08
675,33	50612,43
675,52	51213,72
675,72	50982,22
675,91	50894,56
676,11	51248,45
676,31	50839,92
676,50	51161,95
676,70	51173,82
676,89	51362,97
677,09	51640,84
677,28	51600,54
677,48	51101,41
677,68	51758,23
677,87	51466,44
678,07	51267,62
678,26	51436,05
678,46	51514,85
678,65	51260,58
678,85	51681,97
679,04	50964,11
679,24	51343,89
679,44	51093,54
679,63	51385,75
679,83	51326,85
680,02	51386,65
680,22	51182,34
680,41	51474,30
680,61	51188,49
680,80	51308,50
681,00	51456,85
681,19	51625,11
681,39	51479,22
681,59	51481,92
681,78	51433,92
681,98	52033,40
682,17	51425,56
682,37	51785,18
682,56	51335,45
682,76	51817,62
682,95	51646,82
683,15	51793,29
683,34	51583,01
683,54	51681,47
683,73	51708,18
683,93	51000,24
684,12	51458,25
684,32	51715,96
684,51	51146,71
684,71	51641,42
684,90	51413,76
685,10	51438,59
685,29	51274,01
685,49	51613,73
685,68	51659,44
685,88	51506,25
686,07	51190,37
686,27	51686,06
686,46	51512,31
686,66	51177,59
686,85	51672,87
687,05	51393,20
687,24	51370,02
687,44	51565,97
687,63	51658,78
687,83	50997,78
688,02	51513,87
688,22	51811,15
688,41	51439,81
688,61	51420,15
688,80	51598,16
689,00	51195,29
689,19	50927,82
689,39	51506,17
689,58	51611,35
689,77	51545,98
689,97	51875,05
690,16	51745,04
690,36	51476,10
690,55	51456,85
690,75	52366,40
690,94	51712,85
691,14	52168,89
691,33	51462,83
691,53	51930,34
691,72	51729,97
691,91	51686,80
692,11	51634,70
692,30	51646,82
692,50	51638,47
692,69	51171,20
692,89	51414,01
693,08	51334,22
693,28	51353,14
693,47	51667,79
693,66	51493,23
693,86	51494,54
694,05	51408,93
694,25	51445,88
694,44	51773,47
694,64	51678,36
694,83	51648,54
695,02	51767,16
695,22	51869,15
695,41	51622,25
695,61	51467,09
695,80	51619,71
695,99	51743,65
696,19	51829,83
696,38	51700,81
696,58	51243,21
696,77	51963,52
696,96	51974,17
697,16	51839,33
697,35	51978,59
697,55	51924,28
697,74	51555,57
697,93	52180,69
698,13	51627,65
698,32	52018,08
698,52	51679,92
698,71	51125,74
698,90	52082,06
699,10	51404,51
699,29	51445,71
699,49	51973,76
699,68	51515,18
699,87	51472,58
700,07	51914,62
700,26	51651,57
700,45	51700,89
700,65	51394,68
700,84	51825,65
701,04	51374,20
701,23	51671,97
701,42	51406,56
701,62	51510,35
701,81	51766,18
702,00	51619,30
702,20	51304,65
702,39	51625,44
702,58	51786,41
702,78	51560,40
702,97	51511,25
703,17	51386,73
703,36	51470,21
703,55	51366,82
703,75	51338,64
703,94	51608,57
704,13	51383,37
704,33	51201,68
704,52	51869,07
704,71	51674,92
704,91	51649,69
705,10	51333,98
705,29	51429,08
705,49	51504,69
705,68	51580,14
705,87	51714,98
706,07	51154,98
706,26	51765,69
706,45	51173,25
706,65	51063,07
706,84	51479,22
707,03	51757,09
707,23	51101,74
707,42	50861,14
707,61	51586,45
707,80	51062,33
708,00	51239,44
708,19	51040,38
708,38	51488,06
708,58	50697,55
708,77	51429,90
708,96	50857,54
709,16	50831,49
709,35	51715,63
709,54	51159,16
709,74	51014,74
709,93	50695,01
710,12	51550,16
710,31	51819,92
710,51	51322,01
710,70	51325,13
710,89	51497,89
711,09	50837,06
711,28	50972,22
711,47	51267,21
711,66	51238,46
711,86	51105,26
712,05	51217,81
712,24	51450,38
712,43	51039,80
712,63	50511,67
712,82	51289,74
713,01	50963,05
713,21	50707,62
713,40	50880,47
713,59	51221,50
713,78	50633,00
713,98	51176,69
714,17	51010,23
714,36	51143,60
714,55	50586,71
714,75	50848,28
714,94	50966,16
715,13	51354,62
715,32	50725,24
715,52	51007,53
715,71	50844,51
715,90	50933,47
716,09	50930,03
716,29	51274,50
716,48	51162,93
716,67	50507,58
716,86	51057,34
717,06	50853,77
717,25	51019,08
717,44	51108,13
717,63	51122,71
717,82	50432,87
718,02	50711,06
718,21	50911,03
718,40	50979,27
718,59	50597,53
718,79	50398,87
718,98	50457,77
719,17	50687,72
719,36	50724,58
719,55	50511,76
719,75	50416,65
719,94	50213,82
720,13	50698,86
720,32	50514,05
720,51	50361,93
720,71	50309,50
720,90	49804,72
721,09	50189,41
721,28	49965,85
721,47	50413,95
721,67	50297,95
721,86	50316,87
722,05	50127,72
722,24	49740,82
722,43	50325,31
722,63	49974,70
722,82	50184,25
723,01	50279,11
723,20	49984,04
723,39	49961,18
723,58	50250,60
723,78	49602,87
723,97	50245,44
724,16	49611,22
724,35	49781,37
724,54	49490,15
724,73	49798,24
724,93	49461,80
725,12	49949,55
725,31	49122,58
725,50	49937,10
725,69	50152,87
725,88	49770,15
726,08	49337,45
726,27	49862,30
726,46	48992,41
726,65	49952,01
726,84	49085,55
727,03	49327,13
727,23	49725,50
727,42	49298,05
727,61	49248,49
727,80	48938,26
727,99	49260,61
728,18	49318,53
728,37	49083,18
728,56	48898,20
728,76	48724,94
728,95	49134,62
729,14	48974,39
729,33	48882,72
729,52	49117,01
729,71	49255,29
729,90	49106,52
730,09	48883,46
730,29	49324,75
730,48	48550,70
730,67	49083,75
730,86	48504,58
731,05	48918,11
731,24	48706,27
731,43	48857,08
731,62	48499,18
731,81	48434,95
732,01	49148,30
732,20	48492,21
732,39	49128,39
732,58	48929,33
732,77	48379,58
732,96	49137,32
733,15	49243,00
733,34	48855,36
733,53	48883,05
733,72	48790,40
733,92	48726,01
734,11	48486,73
734,30	48591,66
734,49	48910,57
734,68	48662,11
734,87	48530,88
735,06	48537,51
735,25	48753,70
735,44	48489,35
735,63	48576,75
735,82	48620,91
736,01	48378,76
736,20	48463,21
736,40	48720,60
736,59	48449,62
736,78	48797,44
736,97	48251,86
737,16	48380,80
737,35	48405,05
737,54	48369,25
737,73	48241,46
737,92	48570,53
738,11	48747,47
738,30	48463,95
738,49	48351,23
738,68	48375,73
738,87	48487,13
739,06	48258,66
739,25	48497,05
739,44	48326,16
739,63	48090,81
739,82	47653,37
740,01	48162,41
740,20	47815,16
740,39	48046,17
740,59	48124,89
740,78	48215,16
740,97	48175,93
741,16	47949,67
741,35	48322,89
741,54	48211,31
741,73	48360,82
741,92	48099,33
742,11	48271,93
742,30	48296,26
742,49	47919,19
742,68	48235,64
742,87	48240,31
743,06	47631,41
743,25	48151,02
743,44	47730,37
743,63	48059,19
743,82	47508,70
744,01	47655,66
744,20	47280,96
744,39	47887,33
744,58	47712,18
744,77	47657,22
744,96	47211,33
745,15	47779,27
745,34	47396,63
745,53	47531,14
745,72	47065,76
745,91	47238,86
746,10	47072,73
746,29	47274,98
746,48	47322,00
746,67	47168,41
746,86	47107,79
747,04	47153,83
747,23	46848,10
747,42	47205,11
747,61	46779,13
747,80	47632,31
747,99	46925,76
748,18	47583,16
748,37	47387,70
748,56	46893,57
748,75	47260,24
748,94	47273,75
749,13	47101,15
749,32	46792,40
749,51	47057,00
749,70	47239,43
749,89	46955,34
750,08	46924,37
750,27	46399,44
750,46	46700,73
750,65	47128,43
750,84	46299,33
751,02	46482,09
751,21	46127,38
751,40	46366,50
751,59	46484,79
751,78	46245,43
751,97	46522,89
752,16	46160,72
752,35	46641,01
752,54	46078,48
752,73	46510,60
752,92	46149,91
753,11	46253,87
753,30	46426,63
753,49	46556,31
753,67	46404,84
753,86	46045,38
754,05	46332,18
754,24	46021,05
754,43	46193,82
754,62	46289,34
754,81	45933,40
755,00	46139,75
755,19	46097,73
755,38	45505,54
755,56	45982,31
755,75	46424,26
755,94	45752,69
756,13	45770,71
756,32	46165,31
756,51	45754,98
756,70	45952,08
756,89	45793,48
757,08	45687,15
757,26	45893,75
757,45	45687,97
757,64	45522,50
757,83	45998,28
758,02	45616,62
758,21	45640,87
758,40	45647,18
758,59	45874,17
758,77	45526,26
758,96	45790,94
759,15	45829,77
759,34	45407,32
759,53	45554,28
759,72	45537,32
759,91	45120,52
760,09	45321,63
760,28	45366,69
760,47	44865,83
760,66	45400,03
760,85	44737,63
761,04	45271,50
761,23	45092,01
761,41	45038,60
761,60	45329,08
761,79	45180,65
761,98	44999,94
762,17	45580,66
762,36	45040,98
762,54	45580,58
762,73	45334,00
762,92	44852,40
763,11	45373,57
763,30	45353,01
763,49	45148,21
763,67	44827,00
763,86	44906,88
764,05	45175,49
764,24	44990,11
764,43	45369,63
764,61	44846,50
764,80	44995,10
764,99	45395,19
765,18	44710,76
765,37	45067,60
765,55	45145,26
765,74	44619,26
765,93	44425,85
766,12	44764,34
766,31	44617,62
766,49	44553,07
766,68	44542,01
766,87	44386,77
767,06	44126,19
767,25	44432,98
767,43	44483,68
767,62	44334,02
767,81	44804,48
768,00	44388,33
768,19	44302,89
768,37	44594,52
768,56	44775,40
768,75	44699,79
768,94	44796,20
769,12	44315,59
769,31	44321,73
769,50	44240,47
769,69	44517,35
769,88	43950,64
770,06	44945,21
770,25	44366,87
770,44	44334,26
770,63	44758,03
770,81	44433,06
771,00	44277,41
771,19	44509,00
771,38	44321,89
771,56	44504,90
771,75	43680,47
771,94	44234,90
772,13	44317,39
772,31	43974,15
772,50	44461,16
772,69	44068,93
772,88	44669,72
773,06	43947,44
773,25	44286,34
773,44	44269,30
773,62	44106,20
773,81	44255,21
774,00	43961,21
774,19	44099,73
774,37	43858,73
774,56	44208,19
774,75	43489,11
774,94	44043,94
775,12	43572,75
775,31	43765,26
775,50	43742,24
775,68	43553,82
775,87	43598,80
776,06	43449,21
776,25	43815,14
776,43	43484,19
776,62	43916,97
776,81	43372,78
776,99	43554,32
777,18	43526,95
777,37	43074,52
777,55	43502,46
777,74	43669,08
777,93	43736,09
778,12	43804,66
778,30	43591,83
778,49	43715,78
778,68	43795,81
778,86	43490,66
779,05	43753,21
779,24	43697,35
779,42	43242,04
779,61	43160,61
779,80	43293,98
779,98	43424,31
780,17	43596,91
780,36	43068,95
780,54	43592,65
780,73	42737,67
780,92	43620,26
781,10	43226,23
781,29	43185,84
781,48	42914,20
781,66	43194,20
781,85	43445,20
782,04	42911,50
782,22	43215,01
782,41	42792,47
782,60	43265,55
782,78	43162,33
782,97	43383,11
783,16	42773,63
783,34	42895,28
783,53	43108,51
783,71	42830,07
783,90	43005,21
784,09	42900,11
784,27	42933,78
784,46	42845,39
784,65	43057,07
784,83	42640,27
785,02	42706,05
785,20	43148,33
785,39	42300,63
785,58	42937,14
785,76	42672,21
785,95	42660,17
786,14	42739,22
786,32	42766,83
786,51	42782,23
786,69	43073,21
786,88	42901,75
787,07	42803,04
787,25	42952,70
787,44	42836,13
787,62	42830,73
787,81	43171,59
788,00	43381,88
788,18	43090,41
788,37	43125,31
788,55	43920,00
788,74	43329,94
788,93	43415,71
789,11	43716,02
789,30	43253,43
789,48	42702,77
789,67	43276,28
789,86	43115,31
790,04	43251,38
790,23	43307,17
790,41	43069,52
790,60	43344,69
790,78	43454,21
790,97	42961,22
791,16	43268,66
791,34	43953,26
791,53	43157,99
791,71	43803,76
791,90	43398,10
792,08	43677,11
792,27	43707,09
792,46	43886,91
792,64	43921,48
792,83	43750,35
793,01	43990,12
793,20	44029,85
793,38	43985,13
793,57	43943,76
793,75	43963,17
793,94	43991,68
794,12	44450,34
794,31	43934,75
794,50	44121,68
794,68	44322,06
794,87	44023,22
795,05	44420,61
795,24	44033,95
795,42	43864,54
795,61	44392,92
795,79	44462,55
795,98	43844,64
796,16	44316,00
796,35	44390,46
796,53	44113,00
796,72	44748,69
796,90	44691,76
797,09	44620,49
797,27	44591,24
797,46	44437,81
797,64	44747,95
797,83	44661,28
798,01	44910,64
798,20	45051,54
798,38	44618,11
798,57	44908,27
798,75	44724,03
798,94	44153,55
799,12	45505,13
799,31	45013,45
799,49	44895,16
799,68	44637,04
799,86	44617,87
800,05	44468,86
800,23	44547,33
800,42	44332,13
800,60	44891,97
800,79	44356,55
800,97	44614,92
801,16	45068,83
801,34	44404,22
801,53	44548,89
801,71	44759,26
801,90	44299,45
802,08	44868,87
802,27	44669,80
802,45	44466,23
802,64	44678,08
802,82	44979,62
803,00	44449,36
803,19	44828,07
803,37	45266,25
803,56	44738,04
803,74	44776,71
803,93	44953,00
804,11	44604,76
804,30	44610,58
804,48	44888,53
804,67	45096,68
804,85	44895,16
805,03	45179,67
805,22	44762,94
805,40	44440,43
805,59	44808,57
805,77	44870,75
805,96	44477,38
806,14	44793,50
806,32	44645,55
806,51	45205,06
806,69	44596,16
806,88	44596,73
807,06	44413,23
807,25	44550,94
807,43	44435,60
807,61	44448,29
807,80	44142,16
807,98	44583,30
808,17	44259,96
808,35	44224,16
808,53	44812,75
808,72	44468,53
808,90	44539,06
809,09	44741,40
809,27	44694,38
809,45	44215,40
809,64	44663,41
809,82	44374,73
810,01	44375,63
810,19	44728,95
810,37	44697,90
810,56	44592,39
810,74	45070,63
810,93	44559,38
811,11	44678,32
811,29	44527,59
811,48	44570,93
811,66	44426,01
811,84	44223,02
812,03	43956,04
812,21	43976,36
812,40	44227,36
812,58	44412,33
812,76	44044,60
812,95	44284,62
813,13	43617,23
813,31	44188,53
813,50	44261,44
813,68	44254,64
813,86	44510,06
814,05	44575,43
814,23	43984,96
814,42	44426,75
814,60	44278,56
814,78	44372,85
814,97	44332,22
815,15	44074,99
815,33	44185,74
815,52	43780,08
815,70	43774,59
815,88	43947,77
816,07	43651,55
816,25	43898,54
816,43	44054,84
816,62	43646,97
816,80	44092,36
816,98	43914,10
817,17	43884,69
817,35	43814,33
817,53	43794,17
817,72	43792,37
817,90	43154,88
818,08	43206,65
818,26	43327,65
818,45	43066,24
818,63	43423,16
818,81	43392,28
819,00	42812,21
819,18	43244,66
819,36	43197,56
819,55	43058,79
819,73	42845,06
819,91	42927,96
820,09	42847,03
820,28	43109,33
820,46	42864,56
820,64	43452,82
820,83	42976,87
821,01	42986,54
821,19	43055,68
821,38	43333,87
821,56	43318,47
821,74	43512,37
821,92	43139,72
822,11	43558,00
822,29	42814,26
822,47	42861,53
822,65	43022,66
822,84	42968,43
823,02	42526,07
823,20	43265,96
823,39	42621,26
823,57	42851,53
823,75	42866,77
823,93	42592,10
824,12	42930,26
824,30	42734,23
824,48	42625,93
824,66	42983,34
824,85	42194,46
825,03	42702,36
825,21	42751,59
825,39	42347,73
825,58	42654,27
825,76	42367,48
825,94	42545,32
826,12	42176,85
826,31	42126,06
826,49	42367,39
826,67	42437,60
826,85	42158,01
827,03	42408,93
827,22	42664,92
827,40	42411,96
827,58	42427,28
827,76	42670,74
827,95	42352,49
828,13	42367,97
828,31	42565,15
828,49	42610,94
828,67	42270,40
828,86	42040,78
829,04	42204,79
829,22	41973,45
829,40	41759,97
829,58	41782,74
829,77	42044,55
829,95	42040,21
830,13	42008,59
830,31	41949,85
830,49	41819,19
830,68	41903,65
830,86	41604,40
831,04	41438,52
831,22	41575,49
831,40	41532,15
831,59	42008,26
831,77	41622,34
831,95	41878,83
832,13	41441,38
832,31	41646,43
832,50	41459,65
832,68	41273,21
832,86	41306,79
833,04	41628,82
833,22	40926,69
833,40	41823,78
833,59	41123,54
833,77	41632,75
833,95	40636,53
834,13	42106,16
834,31	41381,75
834,49	41280,17
834,67	41369,21
834,86	41370,36
835,04	41221,11
835,22	41346,52
835,40	41309,33
835,58	41108,06
835,76	41086,68
835,95	41065,54
836,13	40785,38
836,31	40540,44
836,49	40902,11
836,67	40845,75
836,85	40751,63
837,03	40733,53
837,21	40928,41
837,40	40753,84
837,58	40402,49
837,76	40794,96
837,94	40780,87
838,12	41109,86
838,30	40800,29
838,48	40773,01
838,66	40668,56
838,85	40525,62
839,03	40621,95
839,21	40414,37
839,39	40442,88
839,57	40708,87
839,75	40488,01
839,93	40590,58
840,11	40607,37
840,29	40467,86
840,47	40521,03
840,66	40271,18
840,84	40410,36
841,02	39984,21
841,20	40262,98
841,38	40112,09
841,56	40042,79
841,74	40534,30
841,92	40239,15
842,10	40077,03
842,28	40365,55
842,46	40111,52
842,65	40045,57
842,83	40093,25
843,01	40305,50
843,19	39725,60
843,37	40065,81
843,55	39685,62
843,73	39907,78
843,91	39917,29
844,09	39720,35
844,27	39997,65
844,45	39574,54
844,63	39523,67
844,81	39574,95
844,99	39696,43
845,17	39452,56
845,35	39546,69
845,54	39339,76
845,72	39393,09
845,90	39460,67
846,08	39445,84
846,26	39185,83
846,44	39784,82
846,62	39322,64
846,80	39212,21
846,98	39371,30
847,16	39369,99
847,34	39456,74
847,52	39380,23
847,70	39214,34
847,88	39383,67
848,06	39017,41
848,24	39157,74
848,42	39210,25
848,60	38760,92
848,78	39243,50
848,96	38944,34
849,14	38996,77
849,32	39326,82
849,50	39129,80
849,68	39328,21
849,86	39178,63
850,04	38874,46
850,22	38774,93
850,40	38649,35
850,58	38967,77
850,76	39644,74
850,94	38419,73
851,12	39015,44
851,30	38780,42
851,48	39045,02
851,66	38616,33
851,84	38690,72
852,02	38774,36
852,20	39105,96
852,38	38755,35
852,56	38992,59
852,74	39043,71
852,92	38987,75
853,10	38774,68
853,28	39068,28
853,46	38252,94
853,64	38697,93
853,82	38286,45
854,00	38311,35
854,18	38036,19
854,36	37871,28
854,54	38199,29
854,72	37777,81
854,90	37662,23
855,07	37927,40
855,25	37949,11
855,43	38020,38
855,61	37888,08
855,79	37746,28
855,97	37927,73
856,15	37874,89
856,33	37568,84
856,51	37860,88
856,69	37372,81
856,87	37808,70
857,05	37507,81
857,23	37710,48
857,41	37282,21
857,59	37308,99
857,77	37239,12
857,94	37041,94
858,12	37468,16
858,30	37025,47
858,48	37140,00
858,66	36934,05
858,84	37292,20
859,02	36943,14
859,20	37016,71
859,38	37365,60
859,56	37186,85
859,74	37017,44
859,92	37089,12
860,09	36759,48
860,27	37146,55
860,45	36581,47
860,63	36796,35
860,81	36955,02
860,99	36677,65
861,17	36460,72
861,35	36043,35
861,53	35858,70
861,70	35586,49
861,88	36572,54
862,06	36498,16
862,24	35914,82
862,42	35789,07
862,60	36152,38
862,78	36149,93
862,96	36282,88
863,14	35933,74
863,31	36064,40
863,49	36004,52
863,67	35930,79
863,85	35854,44
864,03	36086,11
864,21	36058,18
864,39	36150,01
864,56	35933,33
864,74	36267,56
864,92	36187,28
865,10	36038,27
865,28	36206,53
865,46	36333,01
865,64	35527,67
865,81	36052,93
865,99	35441,16
866,17	35928,42
866,35	35667,59
866,53	35685,04
866,71	35795,05
866,88	35882,05
867,06	35612,29
867,24	35773,75
867,42	35490,97
867,60	35579,44
867,78	35285,27
867,95	35560,27
868,13	35067,21
868,31	35473,77
868,49	35478,76
868,67	35258,32
868,84	35351,14
869,02	35428,96
869,20	34735,27
869,38	35311,00
869,56	34960,71
869,73	34828,49
869,91	35019,20
870,09	34806,62
870,27	34559,72
870,45	34688,90
870,62	34358,03
870,80	34740,76
870,98	34538,58
871,16	34533,34
871,34	34416,20
871,51	34451,01
871,69	34106,79
871,87	34231,22
872,05	34251,29
872,23	34394,00
872,40	34120,22
872,58	34415,95
872,76	34157,58
872,94	33997,92
873,11	34309,95
873,29	33977,28
873,47	34314,45
873,65	34172,73
873,83	34263,83
874,00	34287,50
874,18	34502,95
874,36	34365,24
874,54	34485,01
874,71	34156,35
874,89	33951,47
875,07	34096,22
875,25	33833,92
875,42	33653,45
875,60	33519,60
875,78	33777,72
875,96	33233,45
876,13	33441,86
876,31	32898,32
876,49	32873,01
876,66	32711,30
876,84	33240,09
877,02	32830,09
877,20	32859,00
877,37	33062,90
877,55	32971,23
877,73	32934,94
877,91	32921,10
878,08	33244,02
878,26	33062,24
878,44	33147,52
878,61	32977,62
878,79	32946,00
878,97	32933,14
879,15	33207,40
879,32	33125,81
879,50	32816,24
879,68	33179,39
879,85	32699,59
880,03	32948,29
880,21	32694,84
880,38	32847,29
880,56	32675,75
880,74	33068,14
880,92	32614,97
881,09	32932,89
881,27	32805,59
881,45	32963,20
881,62	33015,96
881,80	32836,72
881,98	32827,96
882,15	33196,92
882,33	32885,30
882,51	33019,32
882,68	32712,37
882,86	33083,30
883,04	32587,36
883,21	32629,30
883,39	32926,34
883,57	32476,69
883,74	32505,77
883,92	32503,72
884,10	32590,47
884,27	32527,72
884,45	32401,08
884,63	32836,56
884,80	32533,54
884,98	32642,57
885,16	32632,25
885,33	32672,72
885,51	32756,03
885,69	32763,08
885,86	32738,75
886,04	32963,70
886,21	32598,67
886,39	32908,73
886,57	32328,33
886,74	32842,29
886,92	32887,84
887,10	32829,92
887,27	32751,28
887,45	32711,22
887,62	32660,51
887,80	32507,24
887,98	32898,49
888,15	32723,59
888,33	32574,91
888,51	32856,14
888,68	32643,39
888,86	32914,63
889,03	32745,05
889,21	32888,33
889,39	33066,91
889,56	33112,13
889,74	33057,82
889,91	33108,69
890,09	33058,56
890,27	33084,44
890,44	33093,21
890,62	33162,35
890,79	33078,87
890,97	33213,38
891,14	33064,46
891,32	33087,47
891,50	33000,80
891,67	33161,61
891,85	33202,98
892,02	33106,64
892,20	33440,71
892,38	33368,21
892,55	33143,10
892,73	33275,97
892,90	33103,04
893,08	33101,40
893,25	32925,69
893,43	33239,11
893,60	32866,21
893,78	33180,53
893,96	32950,51
894,13	33159,65
894,31	33487,32
894,48	32993,19
894,66	33160,22
894,83	33123,60
895,01	33138,51
895,18	33124,75
895,36	33047,91
895,53	33231,65
895,71	33026,04
895,89	33121,23
896,06	32858,35
896,24	33090,34
896,41	33081,17
896,59	33268,27
896,76	32837,21
896,94	33182,42
897,11	33097,80
897,29	33201,59
897,46	32961,73
897,64	33122,95
897,81	33096,40
897,99	32710,16
898,16	33443,74
898,34	33319,71
898,51	33287,11
898,69	33169,56
898,86	33284,41
899,04	33307,59
899,21	33080,76
899,39	33067,24
899,56	32818,54
899,74	33182,42
899,91	32750,54
900,09	32700,90
900,26	32973,03
900,44	32535,34
900,61	32667,56
900,79	33144,33
900,96	32818,21
901,14	32839,92
901,31	32614,15
901,49	32670,43
901,66	32889,56
901,84	32878,34
902,01	32754,23
902,19	32925,77
902,36	32728,10
902,54	32793,80
902,71	32832,30
902,88	32936,09
903,06	32417,05
903,23	33056,43
903,41	32535,83
903,58	32470,22
903,76	32315,80
903,93	32565,82
904,11	32782,90
904,28	32547,55
904,45	32484,47
904,63	32375,19
904,80	32012,62
904,98	32317,11
905,15	32054,81
905,33	32342,51
905,50	32181,29
905,68	32188,91
905,85	32095,36
906,02	31983,70
906,20	32187,02
906,37	31727,54
906,55	31656,60
906,72	32132,22
906,90	31756,87
907,07	31598,68
907,24	31910,30
907,42	31713,62
907,59	31753,26
907,77	31709,11
907,94	31714,43
908,11	31610,73
908,29	31548,63
908,46	31437,88
908,64	31293,95
908,81	31291,73
908,98	31077,11
909,16	31342,52
909,33	31129,13
909,51	30900,65
909,68	30936,53
909,85	30905,32
910,03	30934,57
910,20	30681,52
910,37	30669,64
910,55	30564,46
910,72	30517,19
910,90	30220,89
911,07	30244,16
911,24	30093,51
911,42	30503,18
911,59	30017,32
911,76	30242,76
911,94	30011,43
912,11	30083,27
912,29	29987,51
912,46	29815,56
912,63	29957,36
912,81	29627,06
912,98	29869,46
913,15	29547,85
913,33	29795,82
913,50	29707,02
913,67	29482,72
913,85	29428,33
914,02	29436,27
914,19	29261,62
914,37	29100,16
914,54	29167,50
914,71	28855,22
914,89	28824,91
915,06	28795,26
915,23	28633,88
915,41	28464,72
915,58	28486,43
915,75	28347,41
915,93	28367,73
916,10	28303,75
916,27	28348,23
916,45	28409,67
916,62	28158,91
916,79	28477,09
916,97	28210,44
917,14	28195,94
917,31	28043,98
917,49	28068,72
917,66	28112,55
917,83	27843,94
918,00	27856,06
918,18	27503,89
918,35	27335,88
918,52	27453,02
918,70	27132,96
918,87	27144,11
919,04	27164,91
919,21	27138,78
919,39	26880,98
919,56	27054,08
919,73	26775,80
919,91	26851,16
920,08	26876,23
920,25	26497,77
920,42	26981,91
920,60	26528,81
920,77	26489,90
920,94	26574,44
921,11	26274,37
921,29	26566,58
921,46	26171,40
921,63	26545,44
921,81	26239,89
921,98	26199,09
922,15	26205,48
922,32	26210,56
922,50	26000,03
922,67	25922,94
922,84	25809,40
923,01	25519,25
923,19	25434,13
923,36	25476,98
923,53	25041,01
923,70	25221,96
923,87	25139,64
924,05	25221,14
924,22	24918,54
924,39	24945,65
924,56	24718,33
924,74	24890,52
924,91	24843,83
925,08	24695,23
925,25	24745,69
925,43	24730,21
925,60	24521,56
925,77	24887,74
925,94	24725,21
926,11	24654,43
926,29	24523,69
926,46	24597,99
926,63	24575,38
926,80	24496,41
926,97	24223,29
927,15	24356,57
927,32	24064,29
927,49	23977,95
927,66	23970,74
927,83	23993,76
928,01	23785,60
928,18	23683,69
928,35	23381,58
928,52	23554,10
928,69	23184,24
928,87	23100,92
929,04	23094,86
929,21	23169,82
929,38	23063,08
929,55	23028,18
929,72	22867,05
929,90	22826,82
930,07	22902,52
930,24	22693,21
930,41	22751,54
930,58	22751,38
930,75	22881,87
930,93	22719,92
931,10	22748,75
931,27	22559,03
931,44	22756,70
931,61	22572,63
931,78	22798,81
931,95	22638,57
932,13	22514,47
932,30	22686,09
932,47	22286,08
932,64	22344,32
932,81	22316,80
932,98	22196,87
933,15	22192,12
933,33	21910,48
933,50	22043,02
933,67	21692,25
933,84	21705,68
934,01	21597,06
934,18	21515,06
934,35	21400,04
934,52	21388,90
934,70	21377,68
934,87	21323,78
935,04	21207,21
935,21	21220,31
935,38	21255,46
935,55	21108,58
935,72	21227,44
935,89	20940,73
936,06	20949,74
936,24	20696,20
936,41	20922,79
936,58	20587,66
936,75	20606,74
936,92	20533,26
937,09	20514,58
937,26	20396,29
937,43	20414,97
937,60	20518,19
937,77	20366,31
937,94	20409,32
938,12	20363,28
938,29	20244,83
938,46	20370,33
938,63	20053,79
938,80	20154,14
938,97	20044,78
939,14	20027,50
939,31	19901,83
939,48	20003,49
939,65	19777,48
939,82	19800,99
939,99	19798,37
940,16	19709,57
940,33	19660,17
940,50	19563,84
940,67	19506,41
940,85	19495,52
941,02	19385,01
941,19	19401,96
941,36	19293,18
941,53	19274,99
941,70	19254,26
941,87	19005,40
942,04	19156,45
942,21	19117,87
942,38	19049,22
942,55	18882,68
942,72	18994,17
942,89	18882,19
943,06	18914,55
943,23	18719,58
943,40	18695,99
943,57	18680,01
943,74	18772,83
943,91	18558,45
944,08	18552,88
944,25	18678,38
944,42	18387,48
944,59	18274,27
944,76	18401,33
944,93	18255,51
945,10	18164,17
945,27	18194,07
945,44	17933,24
945,61	17959,78
945,78	17912,11
945,95	17844,61
946,12	17710,75
946,29	17903,67
946,46	17772,11
946,63	17682,57
946,80	17697,48
946,97	17691,66
947,14	17551,50
947,31	17690,60
947,48	17532,09
947,65	17459,75
947,82	17468,19
947,99	17542,00
948,16	17196,79
948,33	17497,76
948,50	17183,11
948,67	17184,67
948,84	17108,24
949,01	17044,67
949,18	17080,06
949,35	17112,09
949,52	16909,83
949,68	17003,22
949,85	17020,42
950,02	16924,33
950,19	16887,47
950,36	16818,25
950,53	16901,39
950,70	16722,40
950,87	16712,08
951,04	16893,28
951,21	16685,87
951,38	16661,95
951,55	16692,01
951,72	16588,79
951,89	16585,60
952,06	16543,25
952,23	16530,96
952,39	16352,62
952,56	16212,79
952,73	16234,17
952,90	16124,64
953,07	16238,34
953,24	16022,16
953,41	16027,57
953,58	15795,49
953,75	15923,94
953,92	15772,88
954,09	15701,04
954,25	15569,48
954,42	15620,68
954,59	15535,40
954,76	15457,49
954,93	15482,64
955,10	15532,78
955,27	15373,12
955,44	15402,28
955,61	15261,46
955,77	15379,43
955,94	15186,75
956,11	15219,85
956,28	15202,48
956,45	15081,98
956,62	15101,97
956,79	15106,96
956,96	15049,46
957,12	15078,05
957,29	15041,59
957,46	14963,52
957,63	14986,95
957,80	14963,03
957,97	14946,32
958,14	15062,24
958,30	14921,50
958,47	14938,95
958,64	14919,62
958,81	14952,79
958,98	14794,69
959,15	14764,30
959,32	14890,37
959,48	14741,36
959,65	14606,52
959,82	14636,91
959,99	14468,49
960,16	14586,21
960,33	14558,35
960,49	14456,37
960,66	14420,57
960,83	14440,64
961,00	14411,97
961,17	14342,74
961,33	14270,74
961,50	14257,88
961,67	14201,11
961,84	14174,32
962,01	14073,07
962,18	14073,48
962,34	13896,78
962,51	13892,27
962,68	13765,54
962,85	13900,47
963,02	13716,80
963,18	13840,91
963,35	13714,67
963,52	13726,47
963,69	13751,95
963,86	13756,94
964,02	13643,49
964,19	13758,75
964,36	13676,01
964,53	13655,94
964,69	13482,19
964,86	13640,29
965,03	13463,67
965,20	13575,82
965,37	13315,81
965,53	13366,11
965,70	13336,37
965,87	13339,65
966,04	13272,15
966,20	13189,49
966,37	13181,46
966,54	13013,53
966,71	13225,29
966,87	13039,17
967,04	13034,75
967,21	12947,42
967,38	12949,55
967,54	12930,22
967,71	12877,38
967,88	12876,23
968,05	12873,53
968,21	12716,58
968,38	12697,73
968,55	12691,51
968,72	12650,63
968,88	12500,23
969,05	12589,03
969,22	12514,15
969,39	12502,69
969,55	12535,78
969,72	12458,12
969,89	12375,38
970,05	12541,68
970,22	12424,37
970,39	12328,53
970,56	12376,86
970,72	12292,97
970,89	12339,09
971,06	12183,78
971,22	12091,37
971,39	12097,19
971,56	12035,91
971,73	11926,22
971,89	12069,83
972,06	11925,49
972,23	11952,27
972,39	11802,77
972,56	11894,85
972,73	11737,07
972,89	11765,50
973,06	11749,44
973,23	11671,95
973,39	11649,01
973,56	11664,74
973,73	11621,98
973,89	11624,11
974,06	11515,48
974,23	11559,23
974,39	11451,42
974,56	11478,21
974,73	11357,63
974,89	11308,47
975,06	11273,90
975,23	11358,61
975,39	11202,06
975,56	11258,09
975,73	11174,86
975,89	11137,51
976,06	11168,97
976,23	10995,63
976,39	11103,19
976,56	10980,96
976,73	11035,52
976,89	10979,00
977,06	10896,01
977,23	10881,92
977,39	10900,60
977,56	10874,88
977,72	10767,40
977,89	10791,32
978,06	10789,68
978,22	10743,89
978,39	10700,31
978,56	10707,85
978,72	10646,98
978,89	10574,89
979,05	10611,35
979,22	10529,43
979,39	10562,03
979,55	10546,38
979,72	10459,88
979,88	10538,03
980,05	10451,44
980,22	10495,35
980,38	10430,47
980,55	10405,32
980,71	10403,93
980,88	10426,54
981,05	10445,71
981,21	10376,16
981,38	10335,85
981,54	10387,30
981,71	10296,37
981,88	10300,87
982,04	10328,73
982,21	10317,58
982,37	10274,17
982,54	10270,89
982,70	10201,34
982,87	10208,14
983,04	10007,60
983,20	10119,51
983,37	9959,93
983,53	9999,90
983,70	9916,51
983,86	9818,70
984,03	9827,38
984,20	9771,84
984,36	9757,51
984,53	9732,44
984,69	9671,90
984,86	9625,37
985,02	9659,61
985,19	9569,01
985,35	9584,49
985,52	9529,69
985,68	9555,25
985,85	9501,51
986,02	9530,59
986,18	9478,82
986,35	9516,75
986,51	9548,94
986,68	9512,41
986,84	9412,22
987,01	9408,70
987,17	9435,24
987,34	9400,67
987,50	9385,27
987,67	9344,96
987,83	9356,92
988,00	9315,72
988,16	9230,69
988,33	9246,33
988,49	9260,18
988,66	9167,77
988,82	9176,70
988,99	9146,31
989,15	9173,26
989,32	9079,71
989,48	9108,96
989,65	9025,56
989,81	9011,96
989,98	9002,38
990,14	8933,40
990,31	8967,65
990,47	8910,14
990,64	8908,17
990,80	8893,59
990,97	8797,17
991,13	8821,01
991,30	8764,65
991,46	8722,22
991,63	8693,96
991,79	8683,63
991,95	8547,40
992,12	8657,50
992,28	8555,92
992,45	8544,29
992,61	8531,51
992,78	8554,37
992,94	8417,97
993,11	8485,47
993,27	8418,54
993,44	8417,89
993,60	8390,69
993,76	8418,71
993,93	8394,30
994,09	8387,99
994,26	8339,16
994,42	8331,30
994,59	8281,58
994,75	8287,23
994,91	8248,24
995,08	8205,88
995,24	8244,88
995,41	8218,83
995,57	8184,01
995,74	8140,35
995,90	8109,87
996,06	8095,87
996,23	8059,33
996,39	8034,84
996,56	8035,90
996,72	8033,61
996,88	7996,74
997,05	8003,38
997,21	7909,34
997,38	7913,35
997,54	7878,29
997,70	7806,94
997,87	7825,62
998,03	7765,16
998,20	7676,20
998,36	7670,38
998,52	7631,55
998,69	7731,82
998,85	7662,93
999,02	7645,56
999,18	7614,92
999,34	7635,97
999,51	7628,11
999,67	7642,69
999,83	7637,20
1000,00	7590,59
1000,16	7527,51
1000,33	7566,18
1000,49	7526,45
1000,65	7518,91
1000,82	7511,38
1000,98	7451,49
1001,14	7439,29
1001,31	7461,82
1001,47	7425,36
1001,63	7394,89
1001,80	7380,88
1001,96	7278,40
1002,12	7275,78
1002,29	7345,90
1002,45	7247,60
1002,61	7250,22
1002,78	7185,67
1002,94	7205,82
1003,10	7135,21
1003,27	7153,55
1003,43	7115,05
1003,59	7151,02
1003,76	7094,82
1003,92	7059,18
1004,08	7074,75
1004,25	7084,42
1004,41	7025,11
1004,57	7028,06
1004,74	7000,78
1004,90	7046,24
1005,06	7010,85
1005,23	6987,51
1005,39	6975,38
1005,55	6969,97
1005,71	6979,31
1005,88	6914,35
1006,04	6940,16
1006,20	6936,06
1006,37	6811,71
1006,53	6819,74
1006,69	6750,10
1006,85	6806,47
1007,02	6762,72
1007,18	6718,40
1007,34	6715,62
1007,51	6708,49
1007,67	6634,03
1007,83	6687,76
1007,99	6598,56
1008,16	6615,92
1008,32	6563,41
1008,48	6663,11
1008,64	6540,88
1008,81	6580,04
1008,97	6548,99
1009,13	6500,83
1009,29	6496,65
1009,46	6503,12
1009,62	6523,19
1009,78	6440,45
1009,95	6455,93
1010,11	6462,57
1010,27	6413,75
1010,43	6439,80
1010,59	6422,43
1010,76	6409,57
1010,92	6366,48
1011,08	6372,13
1011,24	6341,66
1011,41	6364,27
1011,57	6271,54
1011,73	6302,09
1011,89	6245,16
1012,06	6257,28
1012,22	6193,39
1012,38	6229,35
1012,54	6210,01
1012,70	6205,10
1012,87	6142,27
1013,03	6153,90
1013,19	6138,58
1013,35	6123,59
1013,51	6064,28
1013,68	6059,20
1013,84	6048,55
1014,00	6061,74
1014,16	6001,53
1014,32	5972,94
1014,49	6010,13
1014,65	6038,56
1014,81	5972,45
1014,97	5983,92
1015,13	5943,21
1015,30	5917,07
1015,46	5926,17
1015,62	5935,18
1015,78	5886,93
1015,94	5863,83
1016,10	5889,55
1016,27	5845,80
1016,43	5829,91
1016,59	5858,42
1016,75	5799,19
1016,91	5791,33
1017,07	5804,60
1017,24	5767,98
1017,40	5709,25
1017,56	5753,24
1017,72	5688,44
1017,88	5691,63
1018,04	5670,91
1018,21	5636,01
1018,37	5644,04
1018,53	5618,64
1018,69	5624,54
1018,85	5592,10
1019,01	5542,70
1019,17	5571,95
1019,34	5531,97
1019,50	5550,57
1019,66	5502,07
1019,82	5507,56
1019,98	5481,18
1020,14	5522,63
1020,30	5489,95
1020,46	5499,94
1020,63	5456,36
1020,79	5449,64
1020,95	5437,28
1021,11	5452,27
1021,27	5383,13
1021,43	5399,35
1021,59	5419,99
1021,75	5382,88
1021,91	5316,94
1022,07	5324,06
1022,24	5314,72
1022,40	5331,93
1022,56	5259,59
1022,72	5309,48
1022,88	5241,16
1023,04	5282,28
1023,20	5239,93
1023,36	5216,26
1023,52	5184,39
1023,68	5202,74
1023,84	5154,41
1024,01	5173,74
1024,17	5115,74
1024,33	5115,17
1024,49	5104,28
1024,65	5098,79
1024,81	5094,85
1024,97	5109,19
1025,13	5088,79
1025,29	5096,74
1025,45	5052,42
1025,61	5076,10
1025,77	5024,90
1025,93	5054,96
1026,09	5007,61
1026,25	5036,36
1026,41	5016,54
1026,57	5017,93
1026,73	5004,01
1026,90	4995,90
1027,06	4967,14
1027,22	4971,32
1027,38	4923,73
1027,54	4970,01
1027,70	4924,79
1027,86	4945,35
1028,02	4892,68
1028,18	4913,90
1028,34	4851,72
1028,50	4886,78
1028,66	4859,09
1028,82	4850,49
1028,98	4822,31
1029,14	4815,59
1029,30	4782,66
1029,46	4826,57
1029,62	4784,55
1029,78	4773,57
1029,94	4751,86
1030,10	4761,12
1030,26	4737,61
1030,42	4717,37
1030,58	4702,14
1030,74	4719,09
1030,90	4663,72
1031,06	4691,08
1031,22	4693,94
1031,38	4670,02
1031,54	4690,01
1031,70	4666,83
1031,86	4651,43
1032,02	4620,38
1032,18	4614,73
1032,34	4614,89
1032,50	4595,40
1032,66	4600,97
1032,82	4579,42
1032,98	4601,87
1033,14	4586,06
1033,30	4589,83
1033,45	4541,08
1033,61	4560,74
1033,77	4523,80
1033,93	4528,22
1034,09	4533,38
1034,25	4516,51
1034,41	4479,56
1034,57	4490,70
1034,73	4475,14
1034,89	4481,04
1035,05	4454,66
1035,21	4472,85
1035,37	4432,05
1035,53	4448,02
1035,69	4420,50
1035,85	4430,82
1036,01	4404,20
1036,16	4403,62
1036,32	4379,95
1036,48	4374,22
1036,64	4343,33
1036,80	4347,02
1036,96	4321,21
1037,12	4324,41
1037,28	4323,02
1037,44	4310,81
1037,60	4304,34
1037,76	4284,76
1037,91	4296,31
1038,07	4313,43
1038,23	4289,35
1038,39	4269,28
1038,55	4238,48
1038,71	4257,32
1038,87	4226,19
1039,03	4261,99
1039,19	4230,37
1039,35	4205,95
1039,50	4223,48
1039,66	4230,12
1039,82	4191,70
1039,98	4213,08
1040,14	4169,01
1040,30	4190,96
1040,46	4160,90
1040,62	4161,72
1040,77	4146,97
1040,93	4159,42
1041,09	4117,65
1041,25	4130,26
1041,41	4105,69
1041,57	4106,51
1041,73	4106,51
1041,88	4106,51
>>>>>End Processed Spectral Data<<<<<
